audio,continuous frequency-modulated signal,levels: 4,target%: 0.25,target area%: 0.25,time to find and hold 1s: 3.407928466796875
0.0,0.0,0.0,0.0,0.0,0.0,0.0,0.0,0.0,0.0,0.0,0.0,0.0,0.0,0.0,0.0,0.0,0.0,0.0,0.0,0.0,0.0,0.0,0.0,0.0,0.0,0.0,0.0,0.0,0.0,0.0,0.0,0.0,0.0,-1.2898029129482915,-1.3230747440332895,-1.3242191201573577,-1.3242642207580289,-1.3242661456855331,-1.3242662322644272,-1.3242662363058069,-1.3242662364997457,-1.3242662365092541,-1.3242662365097284,-2.614069149458044,-2.6473409805430435,-2.6484853566671114,-2.6485304572677824,-2.648532382195287,-2.6485324687741807,-2.648532472815561,-2.6485324730094995,-2.648532473019008,-2.6485324730194817,-2.6485324730195057,-2.6485324730195074,-2.6485324730195074,-2.6485324730195074,-2.6485324730195074,-2.6485324730195074,-2.6485324730195074,-2.6485324730195074,-1.3587295600712157,-1.3254577289862177,-0.034510439913858104,-0.0011935082281888977,-4.720717661641023e-05,-2.0199970513432933e-06,-9.102816699834571e-08,-4.255334398265202e-09,-2.0444608509362114e-10,-1.0033107059144904e-11,-5.007734899622629e-13,-2.5342402922114903e-14,-1.2973185840031299e-15,-6.706012196173946e-17,-3.495379814965302e-18,-1.835068821859695e-19,-9.694943411064538e-21,-5.150505696981713e-22,-2.74977412352976e-23,-1.474552702380052e-24,-7.938663472641451e-26,-4.289370561179754e-27,-2.325180316565065e-28,-1.264191977842397e-29,-6.892149121061984e-31,-3.7669206736006915e-32,-2.0635946323467122e-33,-1.1329055603080438e-34,-6.232004430345175e-36,-3.434525631085006e-37,-1.8960813239474208e-38,-1.2898029129482915,-1.3230747440332895,-1.3242191201573577,-1.3242642207580289,-1.3242661456855331,-1.3242662322644272,-1.3242662363058069,-1.3242662364997457,-1.3242662365092541,-1.3242662365097284,-1.3242662365097524,-1.3242662365097537,-1.3242662365097537,-1.3242662365097537,-1.3242662365097537,-1.3242662365097537,-1.3242662365097537,-1.3242662365097537,-1.3242662365097537,-1.3242662365097537,-1.3242662365097537,-1.3242662365097537,-1.3242662365097537,-1.3242662365097537,-1.3242662365097537,-0.03446332356146209,-0.0011914924764641214,-4.711635239601733e-05,-2.0157517247765624e-06,-9.082422039290919e-08,-4.245326566731852e-09,-2.039466054365306e-10,-1.0007831533351452e-11,-4.994796570905501e-13,-2.5275525793455056e-14,-1.2938328717129896e-15,-6.687712865984726e-17,-3.485712290140669e-18,-1.8299330189220753e-19,-9.667524824633094e-21,-5.13580293761989e-22,-2.7418586431445317e-23,-1.4702759361823923e-24,-7.915480385228859e-26,-4.2767661976599184e-27,-2.3183087412593127e-28,-1.2604363519836681e-29,-6.8715753057535395e-31,-3.755625858729443e-32,-2.0573815308446387e-33,-1.1294814871248604e-34,-6.213101502073658e-36,-3.4240731831836874e-37,-1.8902928271516714e-38,-1.0452447901319552e-39,-5.78849679575042e-41,1.2898029129482915,1.3230747440332895,1.3242191201573577,1.3242642207580289,1.3242661456855331,1.3242662322644272,1.3242662363058069,1.3242662364997457,1.3242662365092541,1.3242662365097284,1.3242662365097524,1.3242662365097537,1.3242662365097537,2.614069149458045,2.6473409805430435,3.938288269615403,3.971605201301072,3.9727515023526445,3.9727966895322093,5.262601531449386,5.295873449307216,6.586820742430464,6.620137674310546,6.621283975371651,7.9111320754999825,7.94440583555389,9.235353211399083,9.26867014713564,9.269816448381626,9.269861635570724,10.559666477488376,10.59293839534623,10.594082775521189,11.883930789264564,11.917204545286598,11.918349007990034,13.208197025580402,13.241470781786843,14.532418157447607,14.56573509317513,15.856684307368957,15.890001325643029,15.891147630736455,15.891192818109984,15.891194747088377,15.891194833861684,15.891194837912597,15.891194838107012,15.891194838116544,15.891194838117018,15.891194838117043,14.601391925168752,14.568120094083755,14.566975717959686,14.566930617359015,14.56692869243151,14.566928605852619,15.856731514759527,15.89000334565059,15.89114772176515,15.891192822365344,15.891194747292824,15.891194833871719
0,0,0,0,0,0,0,0,0,0,0,0,0,0,0,0,0,0,0,0,0,0,0,0,0,0,0,0,0,0,0,0,0,0,0,0,0,0,0,0,0,0,0,0,0,0,0,0,0,0,0,0,0,0,0,0,0,0,1,3,8,13,11,8,5,3,2,1,0,0,0,0,0,0,0,0,0,0,0,0,0,0,0,0,0,0,0,0,0,0,0,0,0,0,0,0,0,0,0,0,0,0,0,0,0,0,0,0,0,0,0,0,0,0,0,0,0,0,0,0,0,0,0,0,0,0,1,1,0,1,3,7,7,6,4,3,3,1,1,0,0,2,2,1,1,0,0,2,4,3,3,2,1,0,1,2,2,2,0,1,3,16,20,17,13,10,12,13,12,13,13,13,13,15,13,10,7,7,10,14,15,13,10,9,10,14,13,12,17,20,21,17,12,12,14,13,11,8,7,9,9,9,11,17,17,14,13,15,19,17,13,8
1,1,1,0,1,0,1,0,0,0,0,1,1,0,1,1,1,1,0,1,1,0,1,0,1,0,0,1,1,0,0,2,6,7,7,4,2,1,1,0,1,1,7,7,6,4,3,2,0,3,6,6,4,3,2,1,0,0,1,1,0,0,0,1,0,0,0,1,1,1,3,2,2,1,0,1,1,1,1,1,1,1,1,2,2,3,3,4,4,2,2,1,1,1,1,2,2,1,0,1,0,1,1,1,1,0,0,1,3,2,1,1,0,0,1,0,0,0,0,1,0,0,1,1,1,1,0,1,1,0,2,2,1,1,0,0,1,0,1,1,1,0,0,0,1,0,1,1,1,0,0,0,1,1,0,1,0,1,1,1,0,0,0,0,1,1,0,0,0,1,1,0,0,1,1,0,0,1,0,1,0,0,0,0,1,0,0,0,0,1,0,1,0,0,1,0,1,0,1,1,1,1,1,0,1,1,0,1,0,0,0,0

audio,continuous frequency-modulated signal,levels: 4,target%: 0.5,target area%: 0.25,time to find and hold 1s: 2.827378511428833
0.0,0.0,0.0,0.0,0.0,0.0,0.0,0.0,0.0,0.0,0.0,0.0,0.0,0.0,0.0,0.0,0.0,0.0,0.0,0.0,0.0,0.0,0.0,0.0,0.0,0.0,0.0,0.0,0.0,0.0,0.0,0.0,0.0,0.0,0.0,0.0,0.0,0.0,0.0,0.0,0.0,0.0,0.0,0.0,0.0,0.0,0.0,0.0,0.0,5.229939120540223e-98,1.6743436896324992e-96,1.757175836172089e-95,9.563084692469722e-95,3.3058515392822766e-94,8.164761095800831e-94,1.559395102025477e-93,2.4432160634979278e-93,3.292589348587655e-93,3.971154509931432e-93,4.43208838565872e-93,4.703187235059678e-93,4.84331596019209e-93,4.907765413478035e-93,4.934417672686717e-93,4.944415800541513e-93,4.947843961705941e-93,4.94892535131128e-93,4.949240925974542e-93,4.949326529195518e-93,4.949348201040571e-93,4.949353338715527e-93,4.9493544822431485e-93,4.949354721660666e-93,4.949354768860146e-93,1.2898029129482915,1.3230747440332895,2.614022033105649,3.93714187773961,5.261362922824472,5.2958243172131025,6.5868186358550185,6.620137579241024,7.911086883870671,9.234206819319319,10.558427868649032,10.592889263241585,11.883883581893508,11.917202525280013,13.208151829909683,13.24146885241004,14.532418070654757,17.145340915019823,18.502833795241074,19.8282424788965,22.44235664218191,23.799896630653254,26.415110242619846,27.77269341484712,30.3879088655502,31.745492120334003,33.07090466193718,35.68501899876875,38.33236190829019,40.98084735173061,42.33957490010101,44.954835451405714,47.60222354406536,48.960908003332435,51.57616672032945,54.2235547306455,56.87204209902293,59.520572646920996,62.169105033352096,64.81763750232976,67.4661699751553,70.1147024481653,74.05303783413262,76.7348421382371,80.67432190032898,83.35617130503414,86.00585007910523,89.9442306522526,91.3362339723777,93.9526390772091,96.6000722787561,99.24856157629685,100.60728929802899,103.22254985742644,107.15974086342277,109.84150006674217,112.49117499094922,115.13975247799004,116.49848395894736,116.53413886137025,116.53537747423098,117.82522951947685,117.85850345714728,119.14945084128966,119.18276777742463,120.47371699163844,121.79683692286181,121.83125505904029,123.12224753548618,123.15556639615023,123.15671278397512,123.1567579752056,121.8669569914206,121.83368524711797,120.54273796209696,119.21961811765746,119.18519998553042,117.89420750927896,117.86088864862442,116.56993934785173,115.24681941258798,115.21240127621562,115.21121171270852,113.92136177018068,112.59828501444657,111.2740658036594,109.94980157866559,111.20514125867317,111.23722160151704,111.23831886149215,111.23836194635108,111.23836378045488,111.23836386278846,109.9485609536776,109.91528912277654,108.62434183371319,108.59102490202798,108.58987860097643,108.58983341379687,107.30002857187968,107.26675665402186,107.2656122738469
0,0,0,0,0,0,0,0,0,0,0,0,0,0,0,0,0,0,0,0,0,0,0,0,0,0,0,0,0,0,0,0,0,0,0,0,0,0,0,0,0,0,0,0,0,0,0,0,0,0,1,0,0,0,0,0,0,4,12,13,10,6,3,1,0,0,0,0,4,2,2,3,10,18,22,23,24,24,21,19,17,16,18,24,24,19,18,16,20,31,33,30,32,31,32,46,48,44,42,39,45,47,70,72,76,78,75,71,71,73,70,80,83,77,86,92,94,97,95,106,100,93,90,88,93,87,93,110,120,117,105,95,92,84,85,95,91,87,92,101,98,86,91,95,89,81,73,72,79,81,77,76,79,79,68,74,78,79,90,92,95,98,93,94,94,89,79,67,78,87,87,86,81,80,75,74
0,0,0,0,0,0,0,0,0,0,1,0,1,0,0,0,0,0,0,0,0,1,0,1,1,1,0,0,0,0,1,1,0,1,0,0,0,0,0,0,1,0,0,1,0,0,1,0,0,1,0,0,0,1,0,1,1,0,3,5,12,13,11,10,7,4,3,2,0,0,1,0,0,1,0,1,0,0,1,1,0,0,1,0,0,1,2,1,0,1,0,1,1,0,0,0,0,1,0,0,1,0,1,1,1,1,0,1,0,0,2,2,1,0,0,2,2,2,2,1,1,1,1,1,0,0,1,2,2,2,1,1,1,0,2,4,2,3,3,2,2,1,1,1,1,1,1,1,0,1,0,1,0,1,1,1,0,0,1,1,1,1,0,0,1,1,0,1,0,1,1,1,0,0,0,1

audio,continuous frequency-modulated signal,levels: 4,target%: 0.5,target area%: 0.25,time to find and hold 1s: 14.719011783599854
0.0,0.0,0.0,0.0,0.0,0.0,0.0,0.0,0.0,0.0,0.0,0.0,0.0,0.0,0.0,0.0,0.0,0.0,0.0,0.0,0.0,0.0,0.0,0.0,0.0,0.0,0.0,0.0,0.0,0.0,0.0,0.0,0.0,0.0,0.0,1.2898029129482915,1.3230747440332895,2.614022033105649,3.93714187773961,3.9715600098761805,5.262552486128105,5.2958713467826595,6.586820647555355,6.620137669870807,7.911086888106464,9.23420681952279,10.558427868659015,10.592889263242082,13.173686494841824,15.819883095209887,18.468323351081914,21.116851883412657,23.765384179028576,26.413916643761354,27.772646203434682,29.098103932401383,29.132614372314265,30.4236107934907,33.03653565764889,34.3940286288883,37.00924022974686,38.366823311373395,39.69223584489384,41.01654726838924,42.34081543385838,44.95488467008878,46.312422741734395,50.21743918045921,52.898097092697455,56.8375316633649,59.51937913889728,62.169057826185515,63.52783256938491,66.14309514009386,67.5006804108043,70.11589595618857,71.47347921540259,72.79889175721877,74.12320318111252,74.1576684336529,74.1588600129027,74.158907133306,74.15890914925214,75.4487121530342,78.06158981426157,80.70888367865619,83.35736701958159,86.00589738602567,88.65442976397563,92.59276514549416,95.2745694493847,99.21404921146606,101.89589861617073,104.54557739024177,107.19415505044084,109.84268945242924,112.49122201222158,112.56014866339538,112.56253164854273,112.56262588125706,113.85243282570927,115.17550775139102,116.49972688003905,116.53418818825668,117.82518250287723,119.1483043590186,119.18272258177548,120.47371506226271,120.50703392312072,121.7979832239034,123.12110315916765,124.4453242084883,127.05939142897701,127.12712649685061,128.41926527434853,127.1628264092439,128.42050580790098,128.4526785408652,128.4537797496028,127.16402009930445,125.84094719768065,124.51672816025572,123.1924639433547,123.15800071080236,123.15680922258029,121.86695919348399,120.543882433709,119.21966322272795,117.8953989977246,116.57113285183513,116.53666953250898,116.53547804023597,116.53543092389356,115.24562599519403,115.21235407328484,116.50101260586374,117.82404224909241,120.43806235726053,121.79559832252419,121.83120592734409,121.83244251598195,120.54268864410011,120.50941891533525,120.50827463407626,121.7980324508631,121.83130235723407,121.83244664678972,120.54268883040123,120.50941892404983,120.50827463449515,120.50822953793538,119.21842470025351,117.89534986965084,116.57113074545258,115.24686652450062,115.21240329175387,116.50101471647056,119.11384525730368,120.47133419280429,123.08654561181098,125.73393159788516,127.0926159620822,130.9976775875782,137.54774616761017,142.87679923125276,146.88515458324144,149.5693847797352,153.50896060034796,157.48061703144054,162.74317364795954,165.4594393551263,168.11030761038037,170.75893229632197,172.11766579687904,173.44312370325886,176.05723997735555,178.7045829740482,181.35306842155902,182.71179597012483,185.3270565214391,187.9744446140992,190.62293198631463,195.85106836029325,201.14575023479992,205.15291803114445,207.8371012885045,210.48687218869492,211.8456508723791,213.17111070753336,211.91581832954844,210.59393709819162,209.26976518542477,206.65570007172602,202.71855636008758,198.74699626788788,196.06404960381943,192.12452483197114,189.4426735065848,189.3726004720354,189.37017229587155,189.37007613400442,188.08026910277036,188.04699708598557,190.625458527073,193.2715629141215,194.6301963165399,194.66584701449446,193.37728252468517,193.34405981701968,192.05311463410587,193.30960071041756,194.63152915784752,193.37609726514262,192.05421006887568,192.0198408004225,190.728850418205,188.1159258261211,188.0482357805464,188.04590183728033,186.75600679397783,185.4329281133077,184.1087088159412,184.0742474998543,184.0730560978046,182.7832060727298,180.17032640019946,178.81283535814282,176.1976238440676,170.97063202764758,166.96579817517002,164.28170704819362,162.92174299758983,161.59623632219984,156.40251213260197,153.6886253794851,152.32765408826515,152.29191108231933,152.2906687142453,151.00081650026988,149.67773964178133,147.0637175132282,141.83677271807252,137.83194087689648,135.1478498405303,132.49808288121304,128.5596985490449,125.87789214705951,121.93841229031604,117.96675996823382,115.28380936286479,113.92389023947949,111.30858256797491,107.37138954643082,103.39982733934889,100.71688057981204,99.3569616293915,96.74165396596023,95.38406677070012,91.4790482258072,88.79839021851942,84.85895564340369,82.17710816765742,79.52742948035868,76.87885182421047,71.6507115965199,66.35602954867052,61.05905883128588,58.341603742452506,54.400885553170696,51.71898702485157,49.06930614461242,46.42072838936381,45.06199689587544,42.44673616695419,41.08915097894565,39.763738350365166,38.439426922420964,38.404961669686195,37.11396717747858,37.08064822598979,37.07950183391956,37.079456642485134,37.079454713311826,37.079454626528964,37.07945462247758,37.07945462228314,37.0794546222736,37.07945462227313,37.079454622273104,38.369257535221394,38.402529366306396,38.403673742430456,39.693521755979425,39.726795511991924,41.01774288764318,41.051059823370224,41.05220612461573,41.0522513118048,41.052253240774164,41.05225332754702,41.05225333159791,42.34205624474062,42.37532807583516,43.666275364907996,43.69959229659368,44.99054151059355,45.02385852885811,46.31480774689935,47.63792767830614,48.96214872744191,50.28641303497323,51.610679184709674,52.93494541716852,54.25921165348386,55.58347788998408,56.907744126493355,56.94220745005479,58.23320185547955,58.26652080291694,58.267667194792736,58.26771238621763,58.267714315390464,58.267714402173304,58.267714406224684,58.26771440641913,58.26771440642867,56.977911493480846,58.23444257534416,58.26657003030509,59.55747221877679,59.59078722553495,58.30213052705933,58.26890387911252,58.2677614317634,56.97791350497776,56.944639753015664,56.943495290507094,54.363844359977996,50.427890033842154,45.16657404995748,41.160554653157206,37.18661376471009,33.21377005388552,29.240969424081502,26.55797354114558,23.90824957161923,21.25966998205394,17.321332580324935,14.639528185395736,13.279654244955102,10.664348502215972,8.016958480383021,6.658273934333083,4.043015213284674,1.395627202774188,0.03694274733551505,-1.2885130565297338,-2.6128263228035054,-5.226897483971422,-7.874238555144723,-9.23292100309936,-10.558376716537325,-11.882689978585239,-13.206958226601888,-15.821027466680233,-17.178565538510306,-18.503976151347572,-18.53848457551969,-18.539677992924158,-15.960119369958887,-14.603774814633708,-13.27841140937044,-11.954102092266575,-10.629834021857958,-10.59537061597296,-9.304376206711272,-7.9812543461416805,-7.946836123171882,-6.655843642674182,-5.332721868867368,-5.2983036499479566,-4.007311169644643,-2.6841893958473597,-1.3599682639801316,-0.035703952591844994,-0.001240715618786318,2.579556598712407,3.935950289989128,5.261315802012768,6.585625214195215,7.909893289053556,9.234159608100821,10.558425848458015,11.882692085152199,13.206958321670989,14.531224558181192,15.855490794690967,17.179757031200722,18.504023267710476,19.82828950422023,21.152555740729984,22.476821977239737,23.80108821374949,23.835551537310952,25.12654594273571,26.449667803121397,27.773888939030478,27.808350337664432,29.099344656510297,30.4224665128546,30.456884735621458,31.7478772161092,31.781196076967223,33.072145377749905,33.10546240006585,34.396411618301535,33.13992572382128,34.39760311078751,34.42977575312244,34.43087695762426,34.43092022007073,33.14111914952196,33.10784740116889,33.1067030289018,33.10665792848603,33.106656003567586,33.10665591698914,33.10665591294779,33.10665591275385,33.106655912744344,33.10665591274387,34.396458825692136,34.42973065677713,35.720677945849495,35.753994877535156,37.04494409153503,37.078261109799584,37.07940741489254,37.079452602266045,37.07945453124444,38.36925753096603,38.402529366101945,38.40367374242042,38.40371884303063,39.6935236809069,39.72679559857082,41.017742891684556,41.05105982356416,41.05220612462524,42.342054224753575,42.375327984807484,42.37647244770439,42.37651755235595,43.66632239042616,43.699594308099584,43.7007386882655,43.70078378906014,43.700785713997156,43.700785800576526,43.70078580461792,43.70078580481187,43.70078580482138,42.41098289187356,42.377711060788585,42.37656668466451,42.376521584063845,42.37651965913634,43.666322485505745,43.69959431254936,43.70073868847948,44.99058670201893,45.02386045803097,45.025004920733906,45.025050025375954,45.0250519504974,46.31485495003409,47.63792969810923,50.251951731408845,52.899290696209675,55.54777596205304,60.775912240972104,67.36039702397831,73.98044247709049,79.31191959863068,83.32037092678767,87.29440814583042,89.97745306986225,92.6271791417102,95.27575882614066,100.5038991452572,104.50877828443313,107.19287134504162,111.1324413085393,112.52449165016122,115.14089876630558,117.78833205846338,119.14701844729069,121.76227725108954,123.11986235250964,124.44527497704824,127.05938931774679,129.70673222745364,131.06541475795484,132.3908704752407,133.71518373747307,135.03945198549874,135.07391539968094,136.36490980934107,137.68803166993018,137.72244989290095,133.85423072160557,129.88505351927924,125.91239817051748,123.22940851182199,120.57968482303447,119.22090815955032,117.8954484154342,117.86093788472664,116.56994145930636,115.24681950789258,113.92259836772816,112.59833405594148,112.56387081894889,112.5626793305133,112.5626322143548,112.5626301986126,112.56263010778885,113.85243301649183,115.17550776032118,115.20992396752023,116.50091635719276,116.53423521380591,116.53538160143637,119.11503261855391,121.76118403578332,123.11981944993208,124.4452731514662,125.76958632287435,125.80405165370642,127.09504614954797,128.418168014159,129.74238915027104,132.35645637481153,133.71399435582788,136.32920787736865,137.68679104537011,140.30200649587024,142.94939266359236,145.59787994922834,146.95660758032065,146.99226230958524,146.9935009143632,148.28335295922122,148.3166268968726,149.60757428101405,149.64089121714898,149.6420375184145,150.93188561855285,150.96515937860727,150.96630384150419,150.96634894615576,150.96635087127765,152.2561538708144,153.57922861888952,153.61364482629256,153.61483430302678,153.61488132855547,153.61488334006188,153.61488343068214,153.6148834349175,154.9046863480692,154.93795817916418,153.64929964234045,153.61607291185615,152.3251275477113,151.00200778965626,150.96758966156105,148.38679427255477,147.03040066787645,146.99483807284344,145.70380049193997,145.6704797061635,145.66933323175067,145.66928803647838,144.37948319417282,144.34621127629595,144.34506689612004,143.05521888237664,143.02194512635458,141.73099775070284,141.69768081497577,142.98633742667857,143.0195640705745,141.7309036047809,140.40787387457544,140.37345958824298,140.37227019790274,140.3722231764064,140.37222116509346,137.7926152485861,136.43626866923296,133.82110225979983,132.46352110734614,131.13810866060854,131.1036001541128,129.8126038199231,128.4894818727746,127.16526073281513,127.13079933398677,125.83980501513138,125.80648607173488,125.80533968005302,125.80529448863763,125.80529255946527,125.80529247268245,125.80529246863107,127.09509538138494,128.4181701254087,131.03219215851385,132.38972821035685,133.71513873216648,135.03945006503156,135.07391531331658,135.07510689236193,135.0751540127552,133.78535311575257,132.46227846255297,133.717665172538,133.74974752710224,135.04064779065644,136.3637656237845,137.6879865782491,139.01225088135072,140.33651703087418,141.66078326332254,144.2748524125857,148.21199630606745,150.8937534938191,153.5434283272109,157.48180872295518,161.45341786069014,162.84656371434536,165.463013837036,168.11044895965307,170.75893834358772,173.4074689823005,176.05600137297645,177.41473092920972,178.74018865801202,180.06450201086517,181.38877026312616,184.0028395034084,185.36037757524846,189.26539401398284,194.52565775211812,198.5316359849556,201.21577221273614,205.155344014174,207.8371973512617,210.4868763023375,213.13545397080372,217.07379128613735,221.04539858998245,223.72834727426283,227.66787213714986,231.6395263797404,234.32247707147582,236.97219911184035,242.20038444051997,244.91546258741928,247.5662839033172,251.50470949472214,254.18651764888514,255,255,255,255,255,255,255,255,255,255,255,254.39935570885353,250.3945689646561,247.7104798530441,243.77091006734895,239.79925390813673,235.82650021727295,234.43330925474984,233.10666011968314,231.782299654501,233.03763521257787,233.06971536954742,231.78100970788066,229.16817513534016,227.81068601818106,225.19547459068323,223.83789151714942,222.51247898401735,219.89836464759267,215.9612188251429,214.5692644635668,211.95286145720908,208.01562543739448,205.33386431319894,202.68418930260745,198.74580889858646,196.06400267340243,194.70412865081266,192.08882290424515,189.44143288222875,189.37255124911812,190.6599730979991,194.5625595216091,197.2431211894132,199.8927487249977,201.25152127061244,202.5769808290492,203.90129426402098,205.22556252010887,203.97022302172968,201.35853686147883,197.4214872008967,196.02953695760635,193.41313413694846,190.76570103876725,186.82740883312584,181.56600054169732,178.84978011293228,174.90911087796366,173.51701736086304,170.90060840637958,169.54297794463307,168.21756338304337,166.8932518681324,165.56898369838896,164.24471737490143,164.21025404727902,165.49886546755596,165.532090182279,166.82303545559915,165.5665493835123,162.95481802333694,159.01776643317365,156.33601319013212,153.68633853433684,153.61736688573365,152.3251790675486,149.71220709150683,148.35471210473062,147.02930332600667,146.99479498416864,145.70379865765335,148.25008544971755,149.60528562892767,150.93060393359073,152.2549113257671,152.28937639664852,153.58037088035545,154.90349274438415,156.2277138804676,157.55197819205839,157.5864414290414,157.5876329174765,156.29787712068662,156.26460730534384,157.55326593299185,157.5864926677215,156.2978322061737,156.26460538912048,156.26346293388303,154.97361500671906,153.6505383417901,152.32631913524733,152.2918578234057,152.29066642156,151.00081639649517,149.67773963691363,148.353520425942,147.02925620093916,144.41518714210142,140.4780432528454,136.50648315234844,132.53373357493328,129.85073988492877,128.49081892745065,129.7449199124579,131.06675403212455,132.39092392936408,135.00498895224965,140.2319355725916,145.52657040862067,152.11334201873305,156.15387176056058,160.12900615279554,162.81209415763496,165.46182206339225,168.11040183014677,170.75893632720366,173.40746889144523,176.0560013687296,179.99433675490232,183.96594397196515,191.8081043039874,198.46032231691652,205.08270355206037,210.41427288651275,215.71253106810332,221.00964320857298,227.59651308694498,232.92684995506713,238.22505928148405,243.5221693283281,247.52943328635635,250.21362066199316,252.86339174788296,252.93236752730397,250.35514679294573,247.70909163265395,243.77085451534373,238.50944859870847,234.50342536459618,229.2396813906454,225.23356584068262,222.5494237473164,221.18945750779417,219.86395073349672,218.53963527811052,217.21536693097397,214.60129768625197,211.95395670125012,209.30547134436856,205.36713797414197,198.81592502201627,192.1970239450181,186.86559192407813,180.27753669495203,174.9471529873699,169.6489416581497,164.35183152110366,159.05476464591234,155.04750252603984,151.07351231998277,145.81086358095837,141.80479102458284,137.83084784810484,135.14780694667783,133.78788396899873,132.4623790370712,129.84826075146717,127.20091766415419,124.55243221240802,121.90390175069051,120.54517228122953,117.92991164352985,115.28252354683781,112.63403617442897,108.69570271338918,106.01389849586357,104.65402456370967,102.03871882136843,100.6811317125033,100.64552191048762,99.3544823095966,98.03135851984416,95.41733438419443,94.05979823747533,92.73438771122593,92.69987929109564,90.11908004798856,88.76268626994846,87.43732075387442,86.11301134149758,86.078546179578,87.36715751751183,86.11057931544869,86.07844984455159,84.78754756524664,84.75423255424272,84.75308633956605,83.46323824346958,82.14016157066084,80.81594236374013,80.78148105187998,82.07009256298163,83.39312019489833,83.42753438655913,84.71852668541793,83.46204262483799,83.42991718117953,83.4288179962664,83.42877482482805,83.42877298668287,82.13896999120703,83.39550106922339,83.42762852399991,83.42872779951428,83.428770975187,84.71857572648389,84.75184764010639,84.75299202007791,84.753037120863,83.46323613285124,83.4299643883456,83.42882001626292,83.4287749158562,83.4287729909382,82.13896999141147,82.10569815628513,80.81475086701884,80.78143393532366,80.78028763427162,82.07004536004031
0,0,0,0,0,0,0,0,0,0,0,0,0,0,0,0,0,0,0,0,0,0,0,0,0,1,2,3,2,1,3,7,10,11,14,15,18,20,18,16,15,14,16,19,23,26,25,27,42,59,72,67,55,43,34,28,28,33,38,41,44,40,42,45,51,56,60,87,99,92,79,68,63,64,68,64,65,63,61,63,69,65,64,68,83,93,90,97,107,108,119,121,116,109,112,111,111,103,97,97,104,100,95,85,84,90,85,82,76,84,96,109,103,97,87,88,104,105,100,89,78,86,100,107,102,92,78,66,75,83,92,94,87,78,84,99,132,132,114,92,85,92,102,105,104,100,92,88,87,85,83,80,71,64,73,96,114,120,110,146,146,142,184,220,210,188,199,212,214,193,173,154,149,139,144,151,152,149,135,143,136,152,185,180,167,166,172,160,135,123,117,118,119,121,114,119,129,158,203,199,164,134,142,195,205,183,147,120,116,123,161,179,170,152,146,141,129,145,130,104,89,101,117,105,88,75,81,86,94,104,105,101,97,91,146,150,130,116,111,95,79,66,75,81,79,66,51,41,41,46,40,31,23,23,34,36,35,31,26,24,35,36,31,24,22,26,31,36,31,25,23,21,25,34,34,31,30,30,31,32,32,30,32,33,29,25,26,31,38,42,43,39,34,37,39,39,33,29,27,33,36,37,38,42,48,50,48,52,65,65,61,63,58,62,53,45,44,50,44,37,39,43,41,34,28,29,30,38,47,41,33,27,27,32,43,43,34,25,17,12,7,4,2,0,0,0,0,0,0,0,0,0,0,0,0,0,0,0,0,0,0,0,0,1,0,0,0,0,0,0,0,0,0,0,0,0,0,1,5,7,12,15,14,14,15,17,22,22,21,21,21,30,31,30,26,24,31,32,28,30,30,28,29,28,28,27,26,26,28,31,31,34,35,31,27,24,21,26,27,23,21,21,22,23,23,26,27,30,33,39,40,39,39,38,36,35,33,31,31,30,32,37,42,42,36,36,36,34,33,31,30,29,29,32,36,32,26,25,31,37,35,34,34,34,36,37,35,37,40,39,45,45,43,41,49,52,77,83,88,105,164,181,163,145,136,116,93,85,97,137,130,116,103,92,86,82,78,78,74,91,101,92,79,75,75,80,92,111,110,96,81,75,77,83,77,84,81,74,75,96,97,96,91,94,90,91,90,101,105,102,105,96,97,121,136,122,122,123,123,118,115,119,135,136,132,133,130,139,139,122,100,106,110,116,111,97,99,108,111,113,105,106,123,134,137,134,124,117,125,131,123,119,128,122,113,104,102,97,100,104,93,93,108,103,101,96,93,91,97,99,106,126,122,111,110,128,127,114,102,89,79,78,91,93,92,79,70,77,83,85,93,105,106,97,91,110,127,136,135,148,147,134,124,116,109,107,114,116,119,109,115,107,116,131,130,129,148,146,149,180,178,160,155,157,164,166,171,175,175,177,172,168,164,209,225,209,187,190,188,188,180,188,205,215,205,220,224,225,252,255,247,243,222,195,189,215,224,218,202,171,153,152,158,143,124,113,106,98,102,107,131,157,193,230,220,190,157,189,198,222,198,176,149,134,133,135,149,140,121,104,106,94,95,138,168,180,176,157,138,129,168,163,162,168,153,128,114,104,109,116,112,106,95,94,102,105,101,106,101,117,118,107,119,122,113,97,98,113,124,117,103,110,142,156,151,169,155,136,128,131,148,141,124,108,107,102,94,101,108,111,106,100,101,98,83,72,88,102,95,86,79,76,75,66,59,75,98,120,137,168,185,199,251,253,243,209,180,165,171,169,176,169,176,174,197,235,255,251,239,218,200,218,218,189,171,169,173,168,145,119,109,117,133,140,131,128,115,129,138,135,131,119,114,106,91,89,107,107,98,84,84,83,93,88,76,65,62,69,77,83,71,59,67,80,85,81,66,58,56,63,71,67,78,74,73,72,65,61,65,57,55,51,54,56,57,64,63,59,65,64,58,56,49,42,53,76,96,92,81,68,61,68,69,67,62,70,67,66,62,71,68,60,54,53,51,52,63,62,53,42,44,45,48,47,58
1,0,0,1,0,0,0,1,0,0,0,0,0,1,0,1,0,1,1,1,0,1,1,0,1,0,0,1,2,3,4,3,3,2,1,1,1,3,1,1,1,0,0,1,1,1,1,2,2,2,1,0,1,1,1,0,1,1,1,0,0,1,0,0,0,0,1,0,0,1,0,0,1,1,0,0,1,0,0,1,2,0,1,0,1,1,1,1,2,1,2,1,2,2,2,1,2,2,3,3,3,2,2,1,2,1,2,2,1,1,3,3,3,2,2,2,3,3,3,2,1,0,2,3,4,3,1,2,1,2,2,3,2,1,1,3,5,6,4,3,2,2,2,2,1,2,2,3,4,4,5,5,4,4,3,4,5,4,4,4,4,4,4,5,5,4,6,6,6,5,4,5,5,4,5,5,5,5,5,4,6,8,7,6,5,5,6,5,4,4,4,5,5,4,3,4,5,7,9,8,6,4,4,4,3,3,2,1,1,2,4,6,5,5,6,5,5,8,8,7,5,6,5,4,3,2,3,3,3,3,4,4,3,2,3,2,2,2,2,1,1,1,1,1,1,2,1,1,1,2,1,1,2,2,2,2,1,1,4,6,5,4,2,1,0,0,0,0,0,1,1,1,1,0,2,0,1,0,1,0,1,1,0,1,1,0,1,1,0,1,0,1,1,1,1,0,0,0,0,0,1,0,1,1,0,1,0,1,0,0,1,1,1,0,1,0,0,1,1,1,0,0,0,0,1,1,0,0,1,0,0,1,1,0,0,1,2,25,41,52,46,37,29,23,20,21,22,20,15,13,9,8,9,17,20,19,15,15,12,9,6,4,4,2,1,0,1,1,1,1,0,1,0,0,0,0,0,0,1,1,1,0,0,0,0,0,1,2,1,1,0,1,0,0,1,1,0,0,0,0,2,0,1,3,6,5,5,4,3,4,2,2,2,2,1,2,2,2,2,1,1,1,0,1,1,0,1,1,1,1,0,0,0,0,0,0,1,0,1,0,1,1,1,1,0,2,0,0,0,0,0,1,0,0,1,0,1,1,1,1,0,0,0,0,1,1,1,1,1,1,0,0,0,0,1,1,2,2,2,1,2,1,1,1,1,1,0,0,2,2,2,2,1,1,0,0,0,1,0,1,1,1,0,1,1,1,1,2,2,1,0,0,1,1,1,0,0,0,1,2,2,2,1,2,1,1,1,2,3,1,1,0,1,1,2,0,1,2,4,6,5,7,5,5,4,4,5,4,6,6,5,4,3,3,2,2,1,1,1,3,3,2,4,3,3,3,3,2,3,4,4,5,4,3,3,2,3,3,2,2,2,2,2,1,2,4,4,3,3,3,2,2,2,2,3,2,2,4,3,4,2,3,2,3,2,3,1,1,1,2,2,3,3,3,5,5,6,6,6,7,6,5,4,3,3,2,2,4,4,2,1,1,3,3,4,2,3,3,3,6,5,5,5,6,5,6,6,6,4,4,4,3,4,6,7,6,5,5,6,7,8,8,7,7,8,6,7,6,8,8,8,8,6,6,7,6,8,8,7,6,5,4,6,6,5,4,5,4,4,3,4,6,5,7,7,7,7,6,5,5,4,4,3,1,2,1,2,2,0,1,0,0,0,2,3,4,4,3,3,3,4,3,5,4,3,3,1,1,1,0,0,1,1,0,0,2,2,2,2,3,4,3,4,4,4,4,4,3,4,3,3,2,3,5,5,5,4,2,2,1,3,3,2,1,1,0,2,1,1,0,0,1,1,1,1,1,1,1,1,0,0,0,2,2,2,3,4,5,5,5,5,6,7,9,9,7,7,5,3,4,4,4,4,6,7,8,9,9,8,7,6,7,7,5,5,7,8,8,7,5,4,4,4,5,3,4,3,3,4,4,3,3,2,1,0,1,1,3,1,1,1,1,1,1,1,2,0,1,0,0,1,0,1,1,1,0,1,0,0,1,1,1,1,1,1,0,1,1,0,0,0,1,0,1,1,1,0,0,1,1,0,0,0,0,1,1,1,1,0,0,0,1,0,1,0,1,1,1,0,0,0,1,1,1,1,0,2,0,0,0,0,0,1,1,0

audio,continuous frequency-modulated signal,levels: 4,target%: 0.75,target area%: 0.25,time to find and hold 1s: 16.06294870376587
0.0,0.0,0.0,0.0,0.0,0.0,0.0,0.0,0.0,0.0,0.0,0.0,0.0,0.0,0.0,0.0,0.0,0.0,0.0,0.0,0.0,0.0,0.0,0.0,0.0,0.0,0.0,0.0,0.0,0.0,0.0,0.0,0.0,0.0,0.0,0.0,0.0,0.0,0.0,0.0,0.0,0.0,0.0,0.0,0.0,0.0,0.0,0.0,0.0,5.229939120540223e-98,1.6743436896324992e-96,1.757175836172089e-95,9.563084692469722e-95,3.3058515392822766e-94,8.164761095800831e-94,1.559395102025477e-93,2.4432160634979278e-93,3.292589348587655e-93,3.971154509931432e-93,4.43208838565872e-93,4.703187235059678e-93,4.84331596019209e-93,4.907765413478035e-93,4.934417672686717e-93,4.944415800541513e-93,4.947843961705941e-93,4.94892535131128e-93,4.949240925974542e-93,4.949326529195518e-93,4.949348201040571e-93,4.949353338715527e-93,4.9493544822431485e-93,4.949354721660666e-93,4.949354768860146e-93,4.949354777621126e-93,4.949354779149705e-93,4.9493547793993785e-93,4.949354779437238e-93,4.9493547794424784e-93,4.949354779443117e-93,4.949354779443176e-93,4.949354779443178e-93,4.949354779443177e-93,4.949354779443176e-93,4.949354779443176e-93,4.949354779443176e-93,4.949354779443176e-93,4.949354779443176e-93,4.949354779443176e-93,4.949354779443176e-93,4.949354779443176e-93,4.949354779443176e-93,4.949354779443176e-93,4.949354779443176e-93,4.949354779443176e-93,4.949354779443176e-93,4.949354779443176e-93,4.949354779443176e-93,4.949354779443176e-93,4.949354779443176e-93,4.949354779443176e-93,4.949354779443176e-93,4.949354779443176e-93,4.949354779443176e-93,4.949354779443176e-93,4.949354779443176e-93,4.949354779443176e-93,4.949354779443176e-93,4.949354779443176e-93,4.949354779443176e-93,4.949354779443176e-93,4.949354779443176e-93,4.949354779443176e-93,4.949354779443176e-93,4.949354779443176e-93,4.949354779443176e-93,4.949354779443176e-93,4.949354779443176e-93,4.949354779443176e-93,4.949354779443176e-93,4.949354779443176e-93,4.949354779443176e-93,4.949354779443176e-93,4.949354779443176e-93,4.949354779443176e-93,4.949354779443176e-93,4.949354779443176e-93,4.949354779443176e-93,4.949354779443176e-93,4.949354779443176e-93,4.949354779443176e-93,4.949354779443176e-93,4.949354779443176e-93,4.949354779443176e-93,4.949354779443176e-93,4.949354779443176e-93,4.949354779443176e-93,4.949354779443176e-93,4.949354779443176e-93,4.949354779443176e-93,4.949354779443176e-93,4.949354779443176e-93,4.949354779443176e-93,4.949354779443176e-93,4.949354779443176e-93,4.949354779443176e-93,4.949354779443176e-93,4.949354779443176e-93,1.2898029129482915,1.3230747440332895,2.614022033105649,2.6473389647913184,3.9382881787911828,5.261408110004037,6.585629159130279,7.90989346666114,9.234159616397562,9.26862293590811,10.559617341138452,11.882739201514605,13.206960337423212,14.531224649005438,15.855490798936296,17.17975703140467,18.504023267720484,19.82828950422073,21.15255574073001,23.76662489018803,25.12416295778278,26.449573570416604,27.773884907527027,30.38795598191258,31.745494136086226,33.07090475276142,34.39521609006579,34.429681338564265,35.72067583056839,38.333600607943765,39.691093575131795,42.306305175795906,43.663888257412914,46.27910370388117,47.636686958461546,48.962099500054755,50.28641092393753,52.90048200237394,55.547823069690295,58.196308430408315,60.844838887870516,64.78317418302363,67.46497848288328,70.11465533182295,72.7632329054331,75.4117673033796,78.060299862978,81.99863525298716,85.97024247023391,91.23279697636858,95.23886550123157,97.92300558311243,101.86257755791203,104.54443090309248,107.19410985455669,109.84268752304196,112.4912219254282,117.71936031113664,121.7242393633263,126.98793824577,130.99405187124273,136.2577997039481,142.84352125339322,148.17381284292978,153.47202023610396,157.47932728302152,161.4533194059038,164.13636240522166,166.78608839050116,169.43466807089078,172.0832025639168,173.44193221501666,174.76738994825826,176.09170330132486,179.99557737949294,182.6761902819457,186.61562293193055,188.00766740813964,190.62407426031152,190.6919017142451,190.69424152736232,190.69433392190243,191.98414078382567,194.59701861860867,197.2443124911056,199.89279583241984,199.9617203729864,199.96410326287074,198.67439457817804,197.35132386543424,196.02710492691483,194.7028407146469,192.08877165642093,190.73123359309153,188.11602006771437,188.04823981247728,189.33570493189805,190.6586873723994,191.98290254783615,193.30716659099713,197.21103855428305,199.8916513612674,202.54128109383507,203.90005373874428,202.64590747593664,201.32407142306573,199.99990143884995,198.67563932485177,196.06157036129653,194.7040323023968,194.66842460312918,197.24679383596916,198.6030913698086,199.92845276375942,199.96295907730425,199.96415239944474,201.25400251086552,203.8668821874258,206.51417614262405,206.58305366189714,206.58543454047853,206.5855286781238,205.29572979223022,205.26245814257973,205.26131377493581,206.55107158769079,206.58434149386827,205.29568287046615,203.97265322299222,201.35863311462012,197.4214913234499,193.44993131761464,190.766984657577,189.40706571181875,189.37136387450846,189.37012325437766,189.37007403166334,189.37007192085252,190.65987473852786,189.40334365220534,188.08141328408163,185.4674363515661,182.82009931170177,180.17161413243775,178.812886596405,177.48742895864086,177.45291852299187,176.1619221020203,173.54899723787213,173.48130717958153,173.4789732357046,174.76868401826871,176.09175482566363,176.1261708556635,173.54775449821446,170.90165203527863,170.83282163234742,172.12024568246554,172.15342346672946,172.15456382004416,174.73421456531088,177.3803659698348,180.02880429632157,183.9671356548073,189.2285456033529,193.23456901913357,197.20851008862775,198.60174798201686,201.21820203710905,201.2860315108352,202.57817432791882,205.19114438369536,207.83844219706538,209.19712280284395,210.522578433561,211.84689169175246,213.17115993958421,214.49542626670524,214.52988959450155,214.53108108718146,215.82093111649212,217.1440078762776,218.46822708725924,218.50268839931428,219.79368271411877,219.82700165732084,219.8281480489932,219.8281932404081,218.53839225663214,217.21531759938168,214.6012955703274,211.95395660573053,208.0156684269489,205.3338661428419,202.6841893847265,198.7458089024134,196.06400267358583,193.41432573787338,190.76574816021233,190.69681958796798,191.98423942937492,190.727614110765,189.40567971115837,188.08150550994372,186.75724320562207,188.01258297200408,191.91407205772418,194.59459063704435,197.24421633835155,198.60298880162424,199.92844835622313,199.96295887806266,201.25395530305656,202.5770772544494,205.19110130756107,207.838440363381,210.48692563347925,213.13545608670614,215.78398846870752,221.0121267633688,226.30680872425043,230.31397652462633,234.2879626951281,235.68120251346474,235.71805082924018,237.00913955778606,239.6220683668488,242.26936442864255,243.62804495593448,244.95350058299843,246.27781384101505,246.31227917588998,247.60327367192556,248.92639553654604,250.2506166726586,247.70547224540596,242.48090833734085,238.4761706342189,235.7920836249275,235.7219226729423,235.7194907502692,234.42959150714262,233.1065126369743,233.072096243689,234.360709671209,235.6837373892958,235.71815158497793,234.42953805813306,234.39631324834087,233.10536797057145,230.4924453035995,229.1349524316645,227.8095437484069,226.4852324980893,225.16096434070394,222.54689510486145,221.18935703323487,221.15374933335588,221.15251274026926,221.15246369898887,221.15246159665824,222.4422644147409,223.76533915433492,225.08955827427886,226.41382249502638,227.7380886407114,231.6419606988724,234.32257351029645,234.39259741718104,235.68482639993073,235.71819429782377,235.71934278778488,234.4295851609231,231.81670943754364,229.16941566034876,223.94132649759862,221.22625246918005,221.15503716488809,219.86276107023528,218.53958824385617,218.50516783199637,217.2141752525927,217.180856387101,215.8899070860953,213.2769842378718,213.2092942704139,211.9171574178344,210.5939905436209,210.5595703997835,209.26857783290174,206.6556531421148,205.29816017896866,203.97275149144681,202.6484402409243,202.61397499647717,200.0331775917192,197.38698098326836,194.73854072700843,194.66961802055528,194.66723521300497,195.95694390153517,195.99021170151462,199.86076463485463,203.8300339590655,209.09249615700548,213.09856073692345,217.07250355414453,217.1759386128875,217.17951501464205,219.75926227614514,221.11561490255852,222.44097867150649,222.47548509266235,225.05628424575102,231.57188967137847,235.60994833748714,239.58498474241694,243.5578714600017,247.53067392027546,251.50347279831934,255,255,255,255,255,255,255,255,255,255,255,255,255,255,255,255,255,255,255,255,255,255,255,255,255,255,255,255,255,255,255,255,255,255,255,255,255,255,255,255,255,255,255,255,255,255,255,255,250.49925291411773,242.55489419875374,235.89914882918686,227.98682534800272,222.62197822604492,216.03277248715514,209.4125404895195,201.50144956546083,196.13665130292054,190.83725057080852,184.2502904987151,178.91994978109625,171.04213445564247,164.38867782559825,157.7662474579525,152.4346760169046,147.1364177402435,140.54950268237627,135.21916388565356,127.34134864658529,121.97769493352125,116.67833931010219,113.96078990216948,111.30987059030018,109.9510466241724,107.33578194264219,104.68839366370995,104.619512108678,104.61713104824372,105.90683981504607,107.22991053161628,108.5541294703191,109.87839368259597,111.20265982787407,112.52692606011853,112.56138938347505,113.85238378888974,115.17550564927491,115.20992387223568,113.92131052683635,112.59828281257657,112.56386861707784,113.85248214393167,113.88570695372431,113.88684931854544,111.30728850263925,108.66114093526537,107.3025056942744,104.68724908787475,103.32966408576948,103.29405437883236,102.00301478239109,100.6798909928526,100.64547268310997,99.35448019856138,98.03135842456017,97.99694020563122,96.70594772532742,94.09302303858182,94.02533298857789,92.73319613215052,91.41002925775258,91.37560911390614,90.08461654702396,87.47169185623702,84.82439598014255,83.46571546153568,82.14025983488912,79.52614366394474,78.16860358503754,76.84319288179296,75.51888154044768,74.194613378807,72.87034705570838,71.54608081515674,71.51161749140132,71.51042599891534,71.51037888256248,71.51037686681073,70.22057386303821,71.47710494065619,71.50923239541316,70.22052875797826,70.18730010256593,70.18615756479045,70.18611254672729,70.18611062564723,71.47591345220106,71.50918527925371,72.80013256813257,71.54364658686048,71.51152105682657,70.22061895493376,70.18730395221698,68.89635482498994,68.86303781077626,67.57208859292942,67.53877157448046,67.53762526937847,67.53758008200451,66.24777524007781,66.2145033222195,64.92355602909623,63.60043618426786,63.566018052121755,62.27502557586935,62.241706715214775,62.24056032739037,62.24051513615992,60.95071029404833,59.627635463232686,58.30341633902396,56.97915211807148,56.94468888532471,55.65369448414481,55.62037553691134,54.32942623209726,51.716503383691276,50.359010503276124,49.03360181961119,48.99909348222189,48.997900068868816,47.70804995318364,47.67477610231507,46.38382872222502,45.06070887333625,43.736487828046975,42.412223520700024,41.0879573709726,39.76369113851422,37.149621989250605,35.79208392166539,34.46667330903204,34.43216488486993,33.14116855451767,31.818046607553093,30.49382546760263,29.169561155826443,27.845295005886076,26.52102877341723,26.486565450049678,26.485373957582723,26.4853268412308,26.4853248254791,25.19552182170659,25.162249986376263,23.871302697099956,22.54818285245599,21.223961807370628,21.18950041298197,19.898506094340053,18.575384238005757,17.251163102291112,15.926898790718399,15.892435553736304,14.601441152352953,14.568122205109498,14.566975813243214,14.566930621818797,14.566928692645991,14.56692860586315,14.566928601811762,15.856731514565617,15.890003345641082,14.601344808816382,14.56811807833203,14.566975627135466,13.277127700165396,13.243853948194273,13.242709485685252,13.242664381052707,13.24266245593174,11.95285945639507,11.919587621268219,11.918443244950188,11.918398144340008,11.918396219412028,10.62859321988482,10.59532138475844,10.594177008440433,9.304328994881962,9.271055238868986,9.269910776166,10.559668584472238,10.592938490435793,10.59408277997146,11.883930789478567,13.2070074582454,13.241423752023849,14.532416145737786,14.565735002544875,14.566881390184848,14.566926581406268,14.566928510569113,14.566928597351456,15.856731514351111,15.890003345630547,15.891147721764147,15.891192822365294,15.891194747292822,14.601391920923424,14.568120093879807,14.56697571794968,15.856733530306807,14.600200523516484,14.568072981976684,14.566973702411909,14.566930526544802,14.566928688186685,14.566928605648696,14.56692860180123,15.85673151456509,15.890003345641054,15.891147721764671,15.891192822365321,15.891194747292824,15.891194833871719,15.891194837913098,15.891194838107037,14.601391925168253,14.56812009408373,13.277172805011395,13.243855873325726,14.532512485222444,13.275936216179586,13.24380683224977,13.242707469953542,11.952861377281195,11.919587707653173,13.20824616193035,13.24147288856676,14.532418252527162,14.565735097624904,14.566881394634645,14.56692658162025,14.566928510579622,14.56692859735198,14.566928601402847,14.566928601597258,14.56692860160679,14.566928601607266,13.277125688658998,13.243853857573999,13.242709481449934,11.95286146790097,10.629784798940177,10.595368505152218,9.304376111437804,9.271057254630692,7.980107954042427,7.946790931736009,7.945644626449094,6.655796526117789,6.622522766053924,5.331575390208234,5.298258454471651,5.297112153225664,4.007264053088275,3.9739902930339177,2.683042917188701,1.3599230685038508,0.035702023224575725,-1.2885622841218793,-2.612828433849268,-2.647291753359366,-3.938286158589685,-5.261408018965836,-6.585629154874444,-6.620090553508378,-7.911084872354238,-7.944403815750252,-9.235353120380397,-9.26867014288078,-9.269816448177204,-10.559664548508982,-10.592938308572872,-10.594082771470273,-10.594127876121856,-10.594129801243774,-10.594129887832203,-11.883932804822349,-11.91720463610131,-11.918349012234888,-11.918394112836033,-13.208198950711852,-13.241470868375746,-13.242615248541194,-11.952857436387513,-11.919587530239527,-11.918443240694828,-11.91839814413556,-10.628593306453705,-10.59532138879932,-9.304374095686056,-9.271057163806471,-7.9801079497971,-7.946790931532063,-6.655841713490795,-5.332721782084,-5.2983036458965405,-5.297114082398495,-4.007264139871116,-3.9739902970853054,-3.9728458303314307,-2.6829978125466742,-2.6497240563307005,-2.6485795936177547,-3.9383374019234965,-3.9716073078870266,-3.9727515974226915,-3.972796693981508,-3.97279861871505,-3.972798705284434,-3.9727987093253394,-3.972798709519254,-2.68299579658047,-2.6497239654959466,-2.648579589371902,-2.6485344887712317,-2.648532563843728,-2.6485324772648338,-2.648532473223454,-3.9383353859778065,-3.9716072170532963,-3.97275159317689,-3.9727966937775374,-3.9727986187050406,-3.9727987052839344,-3.9727987093253145,-3.972798709519253,-3.9727987095287616,-3.972798709529236,-3.97279870952926,-3.9727987095292607,-3.9727987095292607,-3.9727987095292607,-2.682995796580969,-2.6497239654959714,-2.6485795893719035,-1.3587315758229404,-1.3254578198104383,-1.3243133571074763,-1.324268252465425,-1.3242663273439819,-1.3242662407555799,-1.3242662367137255,-1.3242662365197628,-1.3242662365102533,-1.324266236509779,-1.324266236509755,-1.3242662365097537,-1.3242662365097537,-1.3242662365097537,-2.614069149458045,-2.6473409805430435,-2.6484853566671114,-3.938333370216074,-3.971607126228576,-5.26255450187983,-5.295871437606879,-5.29701773885239,-5.297062926041464,-5.297064855010823,-6.58686785473197,-6.620139689867858,-6.621284066186339,-6.621329166796543,-6.621331091724522,-6.62133117830344,-6.6213311823448215,-6.621331182538761,-6.621331182548269,-5.331528269600452,-5.298256438515478,-4.007309149443119,-3.97399221775745,-3.9728459167058774,-2.6829978165780206,-2.6497240565241387,-1.358776680678946,-0.03565683199409707,-0.0012386996631136384,1.2897537765983433,2.6128755502016636,3.9370966820593827,5.2613609934471945,6.585627143368521,7.909893375836419,9.23415961215221,10.558425848652453,11.882692085161734,13.206958321671463,14.531224558181215,15.85549079469097,17.179757031200722,18.504023267710476,19.82828950422023,21.152555740729984,22.476821977239737,23.80108821374949,25.125354450259245,26.449620686769,27.773886923278752,29.098153159788506,29.132616483349967,29.133807975826432,30.42365800512712,30.45693185196384,30.45807631891213,31.74792433670642,31.781198092922867,31.78234255563584,31.78238766027839,31.78238958539986,33.07219258493655,34.3952673330117,35.71948645336302,37.04375067413056,38.36801681981656,39.69228305208101,39.72674637543853,41.01774078085327,41.05105972829017,42.34200903311424,42.37532605562412,42.37647236092102,41.08671463535624,41.05344473325013,41.0523004438994,41.052255347349636,41.052253422616545,41.05225333604719,41.05225333200628,41.052253331812366,41.05225333180286,41.05225333180238,42.34205624475065,43.66513098878395,43.69954719599302,43.70073667271775,44.99058661119422,46.3136633667339,48.92768549045983,50.285221546538175,51.61063206855122,51.645140488478006,52.93613681862683,52.96945585263313,54.2604051614981,54.293722184201904,55.5846714024566,56.90779133387387,56.94220947006185,56.94339903355992,58.23324897608731,59.55632573182142,62.170347855556855,63.52788391163569,64.85329443364876,66.17760576652384,67.50187392775764,70.1159431637846,71.47348123542024,74.08869476119627,75.4462779294012,76.771690466963,79.38580480360064,80.74334480016428,82.06875549957091,83.39306684073223,84.71733500236391,84.7517984125138,86.04279282198041,86.07611176961177,87.36706107444537,87.40037809695573,87.40152440225265,87.40156958963617,87.40157151861506,88.69137451833667,88.72464635347258,90.01559364273936,91.33871348738286,91.3731316195199,92.66412409577184,93.98724586937468,94.02166408828408,94.02285365563861,94.02290068540258,95.31270561006073,96.63578044472429,96.67019665616918,95.3815832201491,95.34835841460226,95.3472160499851,95.34717104000471,95.34716911931253,94.05736611998879,94.02409428487239,95.31275282150318,95.34597955197802,94.05731909022582,94.02409227316258,94.02294981792463,94.02290480370891,92.73309996986498,92.69982805239457,92.69868367223859,92.69863857144446,92.69863664650747,93.9884394728764,94.02171129991999,94.02285567585012,94.02290077644129,94.02290270136831,92.73309987499889,92.69982804795526,92.69868367202513,92.69863857143396,91.40883373355867,91.3755618158948,91.37441743572936,91.37437233493473,92.66417332294601,93.98724798039993,94.0216641835676,92.7330507471501,92.69982594158377,92.69868357696562,92.69863856698521,92.69863664629302,92.69863655991756,92.69863655588617,92.69863655569273,92.69863655568325,92.69863655568277,92.69863655568275,92.69863655568275,91.40883364273448,91.37556181164946,90.08461452257711,90.05129759089144,88.76034837689157,87.43722844567873,87.40281030950078,87.4016207460032,87.40157371642414,86.11176879177503,87.36829978300852,87.40042723373365,88.69132942200187,88.72464442875004,88.72579064322223,88.7258358263604,88.72583775513533,88.72583784189867,88.72583784594907,90.01564075909175,91.33871550313458,91.37313171034411,91.37432118706889,91.37436821259706,91.37437022410346,92.66417322767202,93.98724797594062,94.02166418335314,94.02285366008786,95.31270359856484,95.34597744115625,95.3471219079006,95.34716701273658,96.63697185081583,97.960046681438,97.99446289268894,99.28545528255593,99.31877413917861,99.31992052680955,99.31996571803052,99.31996764719335,98.0301648210274,96.70709008104548,95.38287096108256,94.05860674033404,92.73434059464898,91.4100743623846,90.08580812607879,90.05134480252732,88.76035039710308,87.43722853671743,86.11300740080834,84.78874308922609,84.75427985224351,83.46328545086014,83.42996650361668,82.13901719880211,80.81589726334441,80.78147912696254,79.49048665050667,79.4571677898421,79.45602140201719,79.45597621078672,80.74577719457172,80.77904893887434,80.78019331094704,79.49043549840499,78.16736267928967,76.84314364571073,74.22907651604577,71.58173562652088,70.2230531870569,67.60779456107852,64.96040655501734,63.60172209979263,62.27626629593789,59.662150116716354,58.304610037411756,56.979199334147665,54.365085079853145,53.00754508712741,51.68213438790471,50.357823046752415,47.743751972172895,45.09641090504145,42.447925544332485,41.08919799981903,38.47393744869923,37.11635226899694,35.79093964081532,33.17682529994238,30.52948239022701,26.591194033828792,22.61958882847633,18.64683732592925,17.253646462284088,14.637194418900808,13.279562122856575,11.95414747892375,11.919638873123207,10.628642534280795,10.595323499856638,10.594177103919451,10.594131912299622,10.594129983117233,9.304326983385623,9.271055148249214,9.269910771930707,9.269865671320503,9.269863746392522,9.269863659813604,9.269863655772223,9.269863655578284,9.269863655568775,9.269863655568301,9.269863655568278,10.559666568516567,10.592938399601566,10.594082775725633,10.594127876326304,10.594129801253809,10.594129887832702,11.883932804822374,11.917204636101312,11.918349012234888,11.918394112836033,13.208198950711852,13.241470868375746,13.242615248541194,14.532463262284095,14.565737018306107,14.566881481009542,15.85672949859991,17.179806167754645,17.21422246155211,18.505214855266995,19.828336625022423,19.8627548437474,21.153747324041177,21.187066184889694,21.188212572723607,21.188257763954535,22.47806260606615,23.801137436881806,25.125356561090527,27.73942369499128,30.38676458471964,34.325052850090195,39.58646096413563,44.88228721051156,50.17930302020063,55.476365859459726,60.773430710419184,66.07049565200843,71.36756059783346,76.66462554386197,83.25149340284874,88.58183017997273,92.59023658918751,97.85407480474223,103.14999729958465,107.15721431865362,112.4210055127215,116.4271230833032,121.69087109362466,126.98678973841865,130.99400658432032,136.257797770305,141.55371825344707,145.56093518188624,148.24512054582175,150.89489154108168,152.25367022921517,154.86893297753167,156.22651825653884,157.55193088937324,158.8762423175218,157.62090465731828,156.2990214925448,154.9748494927913,152.3607843750311,149.71344357614606,148.35476114091836,145.73950251514347,144.38191742204057,140.4768989720048,137.79624096915586,135.14660930720183,133.78783657549934,131.17257409541017,129.81498882893504,128.4895761967025,127.16526476858346,123.26139077699527,119.29097496563564,116.60807339770804,111.3787476376245,106.08401874182492,100.78704602122916,95.48998501627725,90.19292024766136,86.18565822285835,80.92186510830227,75.62594453840684,70.32892469296947,63.742058758909714,57.1219191554163,51.790438006209605,46.492183583639786,41.19507161208211,37.18780756748546,31.924014361911194,26.62809378776093,22.62087685506743,18.646888577979226,15.963845751624257,12.024316861469623,8.05266243743415,5.369711737218032,1.4301867834978015,-1.25166455039019,-3.9013434112446084,-7.839723988443385,-10.521530221711215,-13.171207157637156,-15.819784735308698,-17.178516220501855,-18.5039740360765,-18.538484480032213,-18.539677988454365,-17.2499222826922,-15.926849558656437,-14.602630529527271,-11.988563400076284,-10.6310254235102,-9.305614815131738,-6.691500565277469,-5.333960572765246,-4.008549873553031,-2.684238532401252,-2.649773283718348,-1.3587787917051901,-1.3254598402259419,-1.3243134481561865,-0.03446534377349353,-0.0011915835151903495,-4.712060825782918e-05,-2.015956197568457e-06,-9.083425486784349e-08,-4.2458274109608785e-09,-2.0397195152803738e-10,-1.000912904565249e-11,-4.995467274500122e-13,-2.5279021717293358e-14,-1.2940164076468819e-15,-6.688682516148844e-17,-3.4862274246189676e-18,-1.8302080416797753e-19,-9.668999623184872e-21,-5.136596937655322e-22,-2.742287653095492e-23,1.2898029129482915,1.3230747440332895,2.614022033105649,2.6473389647913184,2.6484852658428912,3.9383333659707476,3.97160712602463,3.9727515889215304,3.9727966935730903,5.262601531643299,5.295873449316724,5.297017829482646,5.297062930277281,6.586867768162587,6.620139685826953,6.621284065992424,6.621329166787036,6.621331091724048,7.911134091251708,7.94440592637811,7.945550302696119,7.9455954033062985,7.9455973282342764,7.945597414813195,7.945597418854575,7.945597419048514,7.945597419058022,7.945597419058497,9.235400332006812,10.558475076040104,10.59289128324917,10.59408075997391,11.883930698450376,11.917204541041773,11.918349007786112,11.918394112622105,13.208198950701346,13.241470868375222,13.242615248541167,14.532463262284093,14.565737018306107,14.566881481009542,15.85672949859991,17.179806167754645,17.21422246155211,18.505214855266995,18.538533712074134,19.8294830126624,21.15260294791711,22.476823997237315,25.09089121772598,26.44842919854787,27.773839807130805,29.098151144046817,30.422419305474538,33.036488541511005,34.39402661314711,34.429634313026575,34.43087090611322,35.72072286034189,35.75399679375753,35.7551412647472,35.75518636978714,37.044991207876386,37.07826312555076,38.36921041866502,38.40252735054465,38.40367365160574,40.98332466468236,42.339673168769565,43.66503675182382,44.98934607723341,47.60341706098915,48.960955210927004,50.28636582739873,52.900480077641404,54.25802007017267,56.87323368233412,58.230816854570946,59.556229392326216,59.59073790307676,60.881734237470866,62.204856184629406,63.52907732458938,64.85334163636604,64.88780487335815,66.17879927474199,66.21211822198548,67.50306752680005,68.82618746225775,70.15040851158793,72.76447573207707,74.122013712899,76.73722723443022,78.09481040243124,79.42022293998303,80.74453436367187,82.06880252915047,83.39306885243306,83.42753218004542,83.42872367271629,83.42877078907821,83.42877280483042,82.13896998270637,82.1056981558667,80.8147508669983,80.78143393532264,79.49048472132327,80.74697061600702,80.77909614199909,83.35980115664621,84.71619090338679,86.0415562378224,87.3658656417091,88.6901337161691,90.01440003519683,91.33866627555305,91.37312959929889,92.66412400473266,92.6974429521705,93.98839225699462,94.0217092795045,92.73305267185312,92.69982602815162,91.40888066805817,90.08576091019754,90.05134278211187,90.05015321900267,90.05010618944264,90.05010417774277,90.05010408711301,90.05010408287723,91.33990699562204,92.66298173964535,93.98720085980221,94.02166216761192,95.31265648221246,95.34597542540452,95.34712181707638,95.34716700849125,94.0573660247153,94.02409428041311,94.02294990834044,94.0229048079342,95.31270579596452,96.63578045341939,97.9599995695354,97.9944608771512,97.99565227879394,97.99569939090053,97.99570140644829,97.99570149726249,96.70589858855904,97.96242967062625,99.28436003854546,99.31873114515436,100.60972160989992,100.64304037993419,101.93398967647157,101.96730669858358,101.96845300386097,103.25830110419179,103.29157486425562,103.29271932715302,103.2927644318046,104.58256926987482,104.61584118754824,104.61698556771417,104.6170306685088,104.61703259344581,104.61703268002519,104.61703268406659,103.32722977131223,102.00415502728846,99.39013299418328,98.03259694234028,96.70718642053069,96.67267800061387,96.67148458341386,97.96124029344087,97.99451010473327,99.28545730278748,100.6085771431666,100.64299527509876,101.93398775134065,101.9673066119947,101.96845299981909,101.96849819104955,101.96850012021284,101.9685002069952,101.96850021104656,101.96850021124101,100.67869729830224,100.64542546721772,99.35447817814537,99.32116124645971,99.32001494540813,99.31996975822857,98.0301649163114,97.99689299845357,97.99574861827861,99.28550643043181,99.31877633657977,100.60972353907277,100.64304046671704,100.64418676757467,100.64423195474473,100.64423388371313,99.35443105753765,99.32115923050354,98.03021194162561,96.70709209700118,96.67267396486507,95.38168148861317,94.05855971501033,94.02414149610091,94.0229519287464,94.02290489898243,94.02290288727256,94.02290279664231,94.02290279240648,95.3127057051513,96.63578044917462,97.95999956933149,99.28426379008947,99.31872702282672,100.60972142400615,101.9328432841879,101.96726150713867,101.96845107468714,101.96849810446061,100.67869720322265,100.64542546276795,99.3544781779314,99.32116124644921,99.32001494540762,99.31996975822855,99.31996782925968,99.31996774248685,99.31996773843596,99.31996773824156,100.60977065118033,100.64304248226483,101.93398977133718,101.96730670302286,103.2582559170227,104.58137584823557,104.6157939844135,104.61698354791108,103.32722766454184,103.29395784515766,102.00301064671513,101.96969371926525,99.38894159252055,98.0325498302327,96.70718440498288,95.38287499685137,95.34840983513574,94.057415347183,94.02409639589864,94.02295000383843,94.02290481240452,94.02290288323123,95.31270570939667,95.34597753643028,95.3471219123599,95.34716701295103,96.63697185082637,96.67024376849024,97.96119106160398,97.99450799348358,97.99565429454466,99.28550239467299,100.6085790676752,101.93279827460537,101.967259586466,101.96845098831265,100.67869518748097,100.64542537194423,101.93408399958268,101.96731073431184,100.67865027276403,100.64542345571083,100.64428100047337,101.93403889920599,101.96730880939535,103.25825601208226,103.29157293973604,103.29271924059414,104.58256734071252,104.61584110076592,104.61698556366281,104.61703066831437,105.90683550638458,105.940107424058,107.23105471717221,107.26437164905185,107.26551795011294,107.26556313729297,105.97576215331358,104.65268749605313,103.32846837994666,102.00420415938305,99.39013510075874,98.03259703740981,96.70718642497995,96.67267800082784,99.25109040932095,99.31758686855966,100.60967651396301,101.93284136817947,101.96726142098872,103.25825398361509,103.291572848301,103.29271923631885,103.29276442755878,103.29276635672257,103.29276644350495,102.00296353460801,101.96969170371746,100.67874441465464,100.64542748296945,99.3544782689696,99.32116125070503,98.03021203266381,97.99689501420531,96.70594579615455,96.67262877769556,95.38167955964478,95.34836254118582,96.63701914903162,96.67024579274263,96.67138823988829,96.67143325371566,96.67143517459225,96.67143526097674,95.38163235206028,94.05855760822045,91.44453557512429,90.08699952328173,88.76158900147215,87.43727766860707,87.40281242032205,87.4016208412767,86.11177080793513,84.7886940479562,83.46447483696511,83.43001352490957,83.42882212305337,83.42877501093626,83.42877299538799,83.42877290457376,83.42877290032892,83.42877290012501,83.428772900115,83.4287729001145,83.42877290011448,83.42877290011448,83.42877290011448,83.42877290011448,82.13896998716619,82.10569815608117,82.10455377995712,82.10450867935644,82.10450675442894,82.10450666785005,80.81470375086039,80.78143191958145,82.07009045639616,82.10331718687999,83.39426255102484,83.4275793961316,82.13892278019351,82.10569613609414,83.39435660187775,84.71738633208271,84.75180061841515,84.75299000875542,84.75303703025175,84.75303904156468,84.75303913217546,84.75303913641031,86.04284204956203,86.076113880657,86.07725825678158,87.36710627033057,88.69018293929133,90.0144021460276,92.6284692837753,93.98600726073977,96.60122078208607,97.95880395007804,97.99441357468108,99.28545316728489,99.31877404369114,100.60972343528806,101.93284337479713,103.25706442432173,104.58132873187212,104.61579196866124,104.61698345708683,105.90683348619311,107.2299102459686,108.55412945694971,109.87839368195303,111.20265982784251,112.52692606011695,113.85119229642325,115.17545853292302,117.78952768238057,120.43686866292357,123.0853540195907,124.44408156391017,124.47973628912388,127.060580719604,128.41697642662248,129.74234202946985,129.7768485329493,129.7780418639783,129.7780890628782,131.06789399542615,133.68077174341641,137.61786852480972,139.00982078406622,141.62622369555888,142.98385388503763,144.30926843390145,145.63357994820103,145.66804520496618,145.6692367844189,146.95908681778047,146.99236066481208,145.70370221882166,144.38067257963485,144.34625829755726,143.05526599447313,141.73214422895353,140.40792309748375,137.79385587316668,133.8567120662647,131.1749548825545,128.5252800493566,125.87670256657016,124.51797108581724,123.1925132704561,120.5783970006143,119.22085691707439,117.89544621360685,116.57113487225062,115.2468667106094,112.63279747456245,108.69565357702925,104.72409347613487,100.75134389870021,98.06835020869474,95.41862633826827,92.77004675334564,90.12151226478836,88.76278261390343,87.43732488067242,87.40281444055465,87.40162093231645,87.40157372513934,86.11176879219397,84.7886939571325,83.4644748327198,82.14021061175733,82.10574737901004,83.39435880372672,83.42758351866324,83.42872587904557,83.42877088882254,83.42877280950474,82.13896998293139,80.81589524292949,78.20187321001727,76.84433715818373,75.5189266363746,74.19461530350952,71.58054422932793,68.93320316221599,67.57452071445628,66.24906500102789,64.92475173898045,62.31068057801553,60.95314241980048,59.62773180293134,58.303420465617464,56.97915230417022,55.65488598108109,51.75101391463333,49.07040110281137,47.71057428295896,47.674876382071616,47.673635939139444,47.67358672470176,47.67358461428838,45.09397869313831,43.73763211356175,42.41226861706592,39.7981563827484,38.44061648104984,38.40500869903071,37.11396918916785,37.08064831661902,37.07950183815532,38.369259555636894,39.69233237030339,39.726748490720105,41.01774087634128,41.05105973275999,42.34200903332921,43.66512896858298,43.69954710495484,44.99053958141021,45.02385844207474,46.31480774284794,46.34812476516341,47.63907398339907,48.96219391481541,51.57621787689991,52.93375401551628,54.2591645413768,55.5834758744363,56.907744035679144,58.23201035875826,60.84607951225721,64.78322340594246,67.46498059370408,71.40445834004468,74.08630765392567,76.73598642375143,79.38456408374655,80.74329557277666,83.35855630148347,84.7161414894815,86.04155411806146,86.07606263305735,87.36705896765541,88.69018091482394,91.30420496773272,92.6617411105944,93.98715163665887,97.89106879562497,101.8614864449349,107.12399392127705,111.13006043442874,113.81420042567925,116.46396948329476,116.53294517129017,117.82513317150202,120.438105156053,123.08540305618631,127.02368949191187,128.41568878499328,129.74229079544244,131.06664924447603,132.39091942145205,133.71518583535448,136.3292549930987,138.97659597403958,140.33527841777794,142.95053704396167,146.88772796298124,148.27968424929145,150.8960873422186,153.54352045312578,154.90220683348198,156.2276627239256,157.55197599424076,158.8762442426543,160.2005105698038,162.81457972349816,161.59251196539984,160.27177308997705,158.94764618677326,158.91318881964276,158.91199759539364,158.91195049157326,160.20175138937168,160.23502312966195,160.23616750154218,158.9464096889907,156.33353395692663,154.97604309226267,153.65063449942193,153.61612616627792,152.32512984018052,151.0020078934204,149.67778675347992,148.35352244170426,145.7394533788156,144.38191531526178,141.76670178987357,139.11931570873935,136.47082842714522,133.82229788329857,132.4635684100102,129.84830777212707,129.78052550132267,128.48838470403163,127.16521765222153,125.84099458713965,124.51673018877455,121.90266112184402,120.54512305809621,119.21971244564679,117.8954011085454,117.8609358600569,116.56994136805325,115.2468195036262,113.92259836752316,112.59833405593143,111.27406790600008,109.94980167353168,108.62553543721587,106.01146628776733,103.36412530722475,100.71563995055767,98.0671094932899,97.99818293699118,96.7059970433353,96.67263097974946,97.96128548508024,97.99451203391662,99.28545738957084,100.60857714721801,101.93279818824149,101.96725958243519,103.25825390106752,103.29157284445306,103.29271923613439,103.29276442754976,103.29276635672211,103.29276644350493,104.58256936050459,104.61584119178403,105.90678848086593,105.94010541255207,104.65144880065537,104.61822215674995,103.32727679664646,103.29395995173364,103.29281365473295,104.5825713806961,104.61584128282175,104.61698557217345,104.61703066872326,105.90683550640465,105.94010742405901,105.94125180422397,104.65149399207027,103.32842117297398,100.71439922644771,98.0670602656978,96.70837791299714,94.09311929106919,92.73553419815067,90.12031866107219,88.76273540225701,87.4373228604604,86.11301143656762,83.49894035813071,82.14140220376261,80.81599158707789,78.20187733682477,75.55453443134468,74.1958519010465,74.16019909671888,72.869157665572,72.83583670661871,71.54488731117388,70.22176737148035,68.89754632194672,67.57328201439587,66.24901586465845,63.63494671925127,59.69780282595435,57.016045638211764,54.3663708048204,51.717793322024455,49.069258928322775,47.71052928187661,46.38507154885902,45.06075819580343,43.73648994353247,42.41222361619802,39.79815446249463,38.44061639469593,35.825402869103804,34.46781970090789,34.43221007629482,34.43097339663879,35.720727264265804,35.753996992826245,35.75514127407521,35.75518637023614,33.17558246905358,31.819235980503702,29.204069575314843,26.556685510116765,25.19800123230417,22.58274252378829,19.935354513879663,18.576670058470516,15.961411341658447,14.603826244299752,13.278413619956062,13.243905105163671,11.952908770575593,10.629786823407544,10.595368596395389,9.3043761157037,6.691451428939083,5.333958465985908,4.008549778473505,3.9740414408997724,2.6830451145893663,1.3599231678187496,1.3255049408260884,1.324315373083664,0.034465430352386,-3.8682171512883046,-6.548782937194256,-9.198410658469529,-10.557183212768944,-11.882642771623102,-13.20695620661537,-13.241421549756009,-14.532416046188418,-14.565734997880122,-14.56688138996031,-13.27712366844694,-11.954050853586981,-11.919634733160782,-10.62864234753914,-9.305520578172112,-9.271102359466182,-7.9801098791733525,-7.946791018324885,-6.655841717542681,-5.332721782278464,-5.298303645906076,-4.007311169450679,-3.9739923087861415,-2.683043008012947,-2.64972598569747,-1.3587767674618119,-1.3254597489937778,-1.3243134438908415,-1.3242682565168395,-0.03446341459012993,-0.0011914967318238654,-4.711655684339992e-05,-2.015761757950691e-06,-9.082472116989504e-08,-4.245351909318308e-09,-2.03947902764811e-10,-1.000789859398854e-11,-4.99483152497867e-13,-2.527570930181203e-14,-1.2938425667358001e-15,-6.687764371470704e-17,-3.485739788114461e-18,-1.829947764575539e-19,-9.667604211957152e-21,-5.135845831702257e-22,-2.741881895154092e-23,-1.4702885782154805e-24,-7.915549307343376e-26,-4.276803867210166e-27,-2.3183293773952764e-28,-1.2604476811441344e-29,-6.871637626378574e-31,-3.755660204307821e-32,-2.0574004918367318e-33,-1.129491971774236e-34,-6.213159565866558e-36,-3.424105384642002e-37,-1.8903107096368452e-38,-1.0452547333984627e-39,-5.788552149700549e-41,-3.2102334102135734e-42,-1.7827303316517908e-43,-9.912512387732274e-45,-5.5182366892218826e-46,-3.07544047323157e-47,-1.715848321200634e-48,-9.582772332287293e-50,-5.357005425047144e-51,-2.997444781312464e-52,-1.6786474618351344e-53,-9.408694035245744e-55,-5.277694886837774e-56,-2.962708626749128e-57,-1.664366556458702e-58,-9.356446927796355e-60,-5.26335036315701e-61,1.2898029129482915,1.3230747440332895,1.3242191201573577,1.3242642207580289,1.3242661456855331,1.3242662322644272,1.3242662363058069,1.3242662364997457,1.3242662365092541,1.3242662365097284,1.3242662365097524,1.3242662365097537,1.3242662365097537,1.3242662365097537,1.3242662365097537,2.614069149458045,2.6473409805430435,2.6484853566671114,2.6485304572677824,2.648532382195287,2.6485324687741807,2.648532472815561,2.6485324730094995,2.648532473019008,2.6485324730194817,2.6485324730195057,2.6485324730195074,2.6485324730195074,2.6485324730195074,2.6485324730195074,2.6485324730195074,2.6485324730195074,2.6485324730195074,1.3587295600712157,2.6152606419345097,2.647388096895439,2.648487372418836,2.648530548092003,2.648532386440613,3.938335381926419,3.971607216858858,3.9727515931673567,5.262599606725353,5.295873362738306,5.297017825441291,6.586865843031635,6.620139599238076,6.621284061950546,6.621329166593072,6.621331091714539,6.621331178302943,6.621331182344796,6.62133118253876,6.621331182548269,6.621331182548743,7.911134095497059,7.944405926582058,9.235353215654417,10.55847306028838,10.592891192424949,11.883883668676873,13.207005442279717,13.241423661189122,14.532416141491936,14.565735002340901,15.85668430312313,15.890001325439057,15.891147630726447,17.180995731057777,17.21426949112164,17.21541395401904,17.215459058670625,18.505263896740836,18.53853581441426,18.539680194580182,18.53972529537482,19.829530133260125,19.862802050924486,21.153749344038253,22.476869188866154,22.511287321012233,23.80227979726463,25.125401570867503,26.449622702725193,27.773887014113008,29.098153164034336,30.42241939650223,30.456882719869732,30.458074212336683,30.45812132868861,30.458123344440306,31.74792634821282,31.781198183543143,31.782342559871157,33.07219057343013,33.10546432944313,33.10660879214612,33.10665389678817,33.10665582190961,33.10665590849801,33.10665591253987,33.106655912733835,33.10665591274334,33.10665591274382,33.10665591274384,33.10665591274385,31.81685299979555,31.78358116871055,31.782436792586484,30.492588779037522,30.45931502302502,29.168367647373767,27.845247798698423,27.810829666367916,26.519837190106482,25.196715416503164,25.162297197593738,23.871304717290922,23.837985856441954,23.83683946860802,22.5469913644288,22.513717604180478,21.222770228325754,21.18945329258872,19.898504078394417,19.86518706012032,19.864040755026895,19.863995567653365,19.86399363867497,18.574190638953375,18.540918803817462,18.53977442749898,17.249926413940486,17.216652657927508,17.215508195224523,17.215463090582467,17.215461165461026,17.215461078872625,17.21546107483077,17.215461074636806,17.215461074627296,17.215461074626823,17.2154610746268,17.2154610746268,15.925658161678506,15.892386330593508,15.89124195446944,15.891196853868768,15.891194928941264,15.89119484236237,14.601391925372699,14.568120094093763,14.566975717960185,14.56693061735904,14.566928692431512,14.566928605852619,14.566928601811236,14.566928601617297,14.56692860160779,14.566928601607316,15.856731514555582,15.89000334564058,15.891147721764648,15.89119282236532,14.601391834344533,14.568120089838427,15.856778630704031,15.890005361382297,15.891147812588368,15.891192826610622,15.891194747496769,15.891194833881725,14.601391924965306,14.568120094073773,14.566975717959188,14.56693061735899,14.56692869243151,14.566928605852619,14.566928601811236,14.566928601617297,15.856731514556081,15.890003345640604,15.891147721764648,15.89119282236532,15.891194747292824,14.601391920923426,14.568120093879807,14.56697571794968,14.566930617358516,14.566928692431485,14.566928605852615,14.566928601811236,14.566928601617297,14.56692860160779,14.566928601607316,14.566928601607291,14.566928601607291,14.566928601607291,14.566928601607291,14.566928601607291,15.856731514555582,15.89000334564058,15.891147721764648,15.89119282236532,15.891194747292824,15.891194833871719,15.891194837913098,15.891194838107037,15.891194838116544,17.18099775106531,17.214269582150333,17.2154139582744,17.215459058875073,17.215460983802576,17.21546107038147,17.21546107442285,18.50526398756508,18.538535818659586,18.53968019478413,18.539725295384827,18.539727220312333,18.539727306891226,18.539727310932605,18.539727311126544,18.53972731113605,18.539727311136524,19.82953022408484,19.86280205516984,18.57414351834562,18.54091678786129,18.539774336664728,18.53972932264295,18.539727401756824,18.53972731537187,18.53972731134,18.539727311146535,18.53972731113705,18.539727311136577,18.539727311136552,18.539727311136552,18.539727311136552,18.539727311136552,18.539727311136552,18.539727311136552,18.539727311136552,18.539727311136552,18.539727311136552,18.539727311136552,18.539727311136552,18.539727311136552,18.539727311136552,18.539727311136552,18.539727311136552,18.539727311136552,18.539727311136552,18.539727311136552,18.539727311136552,18.539727311136552,18.539727311136552,18.539727311136552,18.539727311136552,18.539727311136552,18.539727311136552,18.539727311136552,18.539727311136552,18.539727311136552,18.539727311136552,18.539727311136552,19.82953022408484,19.86280205516984,19.863946431293908,19.86399153189458,19.863993456822083,19.863993543400976,19.86399354744236,21.15379646058459,21.187068291679093,22.478015580751926,22.511332512437622,22.5124788134892,23.802326913617055,23.835600673670935,25.126548049516128,25.159864985252685,25.16101128649867,26.450859386636058,26.484133146690418,26.48527760958734,27.775125627187197,27.80839938339411,27.809543846106603,27.80958895074913,27.809590875870597,29.09939387540729,29.132665710534145,29.133810086852176,29.133855187462355,29.133857112390334,27.84405428602096,26.520979546029054,25.196760426065634,23.872496205317113,22.548230059632054,21.22396382736765,18.60989467811355,14.672750784632226,10.701190683932325,8.018244019455501,5.368522160535477,4.009745579181413,1.3944829259444518,0.03689765138703798,-1.2885149812333279,-2.6128264093713947,-5.226897488012252,-6.584435642390343,-7.909846259075578,-9.234157596380442,-10.558425757827234,-11.882692080916357,-11.917155408519221,-13.208149814137919,-14.531271674533112,-14.565689897494376,-15.856682377991651,-17.179804151798447,-18.50402528366615,-18.538486682106168,-18.53967808799423,-18.53972520030477,-18.53972721586253,-17.249924393728953,-15.926849653940515,-14.60263053398708,-11.988563400290765,-9.341222510572443,-7.982540071098975,-5.367281445120138,-4.009696352007219,-1.3944808149192067,-0.03689755610353522,-0.0012879272551832078,1.2897516655525845,2.612875454917137,3.93709667759955,5.261360993232714,6.585627143357987,7.909893375835893,9.234159612152183,10.558425848652453,10.592889172213441,11.883883577638175,13.207005438023858,14.53122657393294,15.855490885515191,15.889954122497757,17.18094852388113,17.21426747112459,18.505216775939164,19.828336711396872,21.152557760727035,21.187019155319614,22.478013473971536,22.51133241735804,23.80228172198771,23.83559874448807,25.126547962732783,26.449667894149563,27.77388894328581,29.098153250817173,30.422419400553622,31.74668563301246,31.78114895637951,33.07214336179473,34.395265222179944,35.719486358089,37.04375066967125,38.36801681960211,39.69228305207048,41.016549288386294,42.34081552488654,42.37527884844753,43.66627325387226,43.699592201309656,44.99054150613374,46.31366144159191,47.63788249092211,48.96214679846299,48.996610035251614,50.28760443662547,51.61072629681674,52.9349474327163,54.25921174429808,54.293674981280624,55.58466938266399,56.90779124285574,58.23201237875531,58.266473777388796,59.557468096234636,59.59078703963065,60.881736344260794,60.91505336676117,60.916199672057594,62.20604777238937,62.23932153245326,62.24046599535066,62.240511100002244,63.53031593807246,63.56358785574589,63.564732235911805,63.56477733670644,63.56477926164346,64.85458226117112,64.88785409629752,64.88899847261553,66.178846486174,66.21212024218697,67.50306761783825,68.82618746651359,68.8606055988441,68.86179516215725,68.86184219172728,68.86184420342764,70.15164720700571,70.18491904232651,70.18606341865404,70.18610851926469,68.8963075312444,68.86303578673832,67.57208850170734,67.53877157021562,67.53762526917355,67.53758008199446,67.53757815302559,66.24777515330447,66.2145033181686,66.21335894185012,64.92351092829162,64.89023717227865,64.88909270957566,63.599244691985305,63.56597093577887,64.8546293860147,64.88785611245717,64.88899856345977,64.88904357747204,64.88904549835769,63.599242671794315,63.565970844741194,63.564826468810594,63.56478136821941,63.56477944329237,63.5647793567135,63.56477935267212,63.56477935247818,62.27497643952038,63.531507521383205,64.85343788929241,66.17761190884909,67.50187420467961,67.53633735083795,67.53752883502771,68.82737886393052,70.15045562369602,70.18487192172833,71.47586431564663,71.50918317246376,71.51032956010424,72.80017766427396,72.83345142452181,74.12439880037651,75.44751864906185,75.48193678139285,75.48312634470601,76.77297628722434,76.8062501300097,76.80739459676354,78.09724261454829,80.71012219666086,83.35741614744039,84.71609657944936,86.0415522020536,86.07606254690742,87.3670589636351,87.40037800168278,88.69132731074167,90.01444724640328,91.33866829574346,91.37312969033654,91.37432109604019,92.66417112128998,95.27705079382889,97.92434474883423,100.57282809399446,103.22135846064194,104.58008792565361,104.61574273724275,105.906784258806,105.9401052219846,105.94125170468409,107.23109981330258,107.26437357376436,108.55532094962956,108.5886378853671,108.58978418661316,109.87963228675054,109.91290604680489,109.91405050970181,109.91409561435339,108.62429462652702,107.30121996908214,107.26680376591494,108.55541720233246,108.5886420078988,108.58978437251693,108.58982938249736,107.30002839024125,105.9769537325834,104.65273461645744,103.32847039589284,102.0042042502168,100.67993801795284,98.06586886869879,96.70833080111403,96.67272310142901,96.67148650835189,97.9612403800203,99.28431302172294,99.31872913406642,100.60972151930018,100.64304037569991,101.93398967626818,101.9673066985736,100.67865009091217,100.64542344721019,100.64428100006498,100.64423598623763,100.64423406536105,99.35443106602828,99.32115923091143,98.03021194164563,97.99689500995048,96.70594579595013,96.67262877768555,96.67148247259257,96.67143728521908,97.96123826918898,97.99451001350067,99.2854572985221,100.60857714296165,100.6429952750887,100.64418483839187,100.64423186796138,100.64423387966173,99.3544310573432,98.03135631754571,96.70713719759185,95.38287297684379,95.34840974410704,95.34721825587593,95.34717113972748,95.34716912398576,95.34716903316203,95.34716902891675,95.3471690287128,95.3471690287028,94.057366115754,94.02409428466896,92.73314699559661,92.69983006391094,93.98848667580766,94.02171331971309,92.73305285391997,92.69982603666281,91.40888066846709,91.3755638231659,91.37441752614617,91.37437233916008,91.37437041020068,90.08456741048002,90.05129557534417,90.05015119902568,90.05010609841548,90.0501041734875,88.76030117396029,88.7270293388339,87.4360820495676,87.40276511787243,86.1118159038721,84.78869597265921,84.75427783648125,83.46328536003539,83.42996649937133,82.13901719859815,82.10570017628268,82.10455387099532,82.10450868361228,82.10450675463342,82.10450666786008,82.10450666380916,80.81470375066648,80.78143191957194,80.7802875434474,80.78024244284671,82.07004343086747,82.10331517537358,80.81465663450798,80.78142990382972,79.49048453967535,79.4571676945681,79.45602139755789,78.16617329762397,78.13289953757959,76.84195216173488,76.80863522599834,78.09729183770064,79.42032139454484,80.74453858573285,82.06880271971801,82.10326594840436,82.10445743644108,82.10450455258,82.10450656832126,83.39430957209323,83.42758140742355,83.42872578375155,83.42877088436222,83.42877280929024,83.42877289586914,83.42877289991053,84.71857581305277,86.04165055709556,84.78626385135681,84.75418149699658,84.7530841464007,86.04284397025471,88.65571979292906,92.5928164877244,93.98476874293857,95.31136874128897,96.63572709967323,97.9599972724125,97.9944607731631,99.28545518686404,98.02897122175051,96.7070428696125,95.382868940881,95.34840956224414,95.34721824737474,96.63697405226736,99.2498496938956,103.18694638022986,108.44830737388249,112.4543286913645,115.13846675323826,117.78823572406091,120.436817233901,124.37515472198497,127.05695912094454,128.4168330615786,129.7423358913789,131.066651169179,132.39091950801992,135.0049887523436,136.3625268243776,136.3981345242766,136.3993711173642,136.39942015864463,137.68922517392355,140.30210292577075,145.52900262029723,152.11343836244095,160.0232846261913,166.67783639690018,173.3003097537236,177.34208011144764,183.8968695520902,189.22610915579696,191.94466957124482,194.59562829590806,193.3748481053909,192.0541604605559,192.01983867155752,192.01865323501184,193.3084093044974,193.3416791325871,192.05302050555147,190.72999085790363,190.69557657541964,190.69438718526385,189.40453725082827,189.3712634084308,188.08031602874763,186.75719617987883,185.43297513459055,185.39851374019193,184.1075194215495,182.78439756521522,181.46017642950054,178.8461092049796,176.1987683110159,169.68087421954533,164.35292244331987,159.05480744469534,156.33730725970148,153.68639005865396,151.03776327485141,147.09942385374717,144.41761936782032,141.7679425101776,141.6989707620457,140.40678293919692,140.37341678882726,137.7926625512617,136.43627069370035,136.40070817693956,135.1096705996786,135.07634981407648,135.07520333967219,135.07515814440032,135.07515621504308,135.0751561282512,135.07515612419937,136.3649590369532,136.39823086802866,136.39937524415225,136.3994203447529,136.3994222696804,136.3994223562593,136.3994223603007,135.10961944754632,133.78654470352254,131.17252267041738,131.10478953152264,131.10245375374635,129.81255862809033,128.48947994358176,128.45506355897956,127.16407116102033,127.1307523040093,127.12960591635932,125.8397578121891,121.93707531309637,119.25650953103839,119.18648763584416,119.18406165667206,119.18396559409977,121.7635673063628,124.40971660895349,125.76835192764584,128.38360853766002,129.74119353993825,131.06660615983213,134.97052341325542,137.65113815403626,139.010965060661,140.3364658785475,141.66078106570737,142.98504940031194,143.01951281853553,143.0207043154413,143.02075143200665,144.3105563607171,144.34382828262687,144.34497266299627,145.63482067674917,145.66809443277168,145.66923889547513,146.95908691306553,149.57196649516854,150.92945753299932,150.96506322097497,150.96629972342186,150.96634876046593,149.67654794964477,149.6432762134154,148.35232892878182,145.73940617141298,141.80230746935703,140.41035512372656,139.08375512115086,137.75939676256365,137.72492950276273,135.14413200720003,133.78773830745314,132.46237279502265,131.1380633828202,131.10359822090916,129.81260373294685,129.77928478166203,131.06794130255008,131.10116794220116,131.10231038915194,132.39215831591804,132.42543206787917,133.71637944333597,135.03949929200178,135.0739174243318,135.07510698764492,135.07515401721494,135.07515602891533,135.07515611954508,136.36495903672918,137.68803378096595,139.01225290113328,139.04671420894354,139.0479056105958,139.04795272270286,139.04795473825064,139.04795482906485,140.33775774625798,140.3710295775469,140.37217395368097
0,0,0,0,0,0,0,0,0,0,0,0,0,0,0,0,0,0,0,0,0,0,0,0,0,0,0,0,0,0,0,0,0,0,0,0,0,0,0,0,0,0,0,0,0,0,0,0,0,0,0,0,0,0,0,0,0,0,0,0,0,0,0,0,1,0,0,0,0,0,0,0,0,0,0,0,1,0,0,0,0,0,0,0,0,0,0,0,0,0,0,0,0,0,0,0,0,0,0,0,0,1,0,0,0,0,0,0,0,0,0,0,0,0,0,0,0,0,0,0,0,0,0,0,0,0,0,1,0,0,0,0,0,0,0,0,0,0,0,0,0,0,0,2,1,4,12,18,19,17,14,15,23,27,26,31,28,23,20,23,26,28,31,33,35,30,33,40,37,34,37,39,34,30,28,30,43,54,62,65,62,62,59,57,68,74,85,90,95,102,104,95,85,91,99,111,125,148,134,114,108,104,99,94,110,132,148,161,168,177,207,199,181,159,142,141,151,159,148,133,130,142,169,170,170,176,171,157,137,125,127,160,161,152,135,125,125,140,138,137,148,158,155,155,160,190,183,202,223,215,188,160,150,147,140,121,107,126,156,170,166,174,169,162,152,178,182,162,137,119,127,145,179,180,157,155,150,142,124,114,122,130,142,141,136,131,118,117,114,105,111,125,121,136,139,142,143,149,152,138,143,142,138,129,153,163,164,155,172,180,206,229,242,248,221,187,160,140,143,166,171,166,166,170,172,168,152,149,161,174,168,162,153,141,145,146,134,121,111,107,125,160,181,170,147,124,111,137,151,158,141,127,138,200,244,249,223,190,182,193,202,192,188,211,213,206,196,231,231,214,205,181,190,212,194,171,170,165,169,167,169,155,143,141,134,145,164,174,177,169,172,189,210,241,218,185,183,187,181,182,171,170,159,166,172,172,160,166,181,194,195,179,169,194,207,208,186,184,180,169,150,139,134,136,149,169,164,160,167,172,160,136,117,135,149,148,140,139,139,151,148,160,159,150,140,149,180,207,197,196,223,255,255,255,224,185,175,201,205,198,186,199,255,255,255,255,255,255,255,255,255,255,255,255,255,255,255,255,255,255,255,255,255,255,255,255,255,255,255,255,255,255,255,255,255,255,255,255,255,255,255,255,255,255,255,251,233,195,151,118,113,132,125,102,78,61,53,57,55,80,85,75,75,69,86,111,107,90,72,70,86,117,114,108,102,87,77,71,79,75,69,70,70,82,93,89,86,80,85,101,107,99,91,91,90,94,85,84,90,87,73,61,56,59,55,59,55,62,55,50,47,49,52,54,56,61,61,67,66,60,56,52,50,50,50,47,50,50,61,58,59,60,54,51,50,51,63,58,49,46,43,45,58,69,72,66,54,45,48,46,42,38,38,43,42,44,44,37,36,33,43,46,44,45,44,38,29,22,30,33,27,21,26,34,39,36,36,41,36,27,20,14,11,10,11,8,6,4,9,11,16,18,17,14,15,21,27,25,21,19,15,10,7,6,10,15,13,9,6,4,2,1,2,4,9,10,10,17,18,14,10,7,5,6,14,21,19,14,10,6,7,7,6,4,3,2,2,7,11,12,11,12,17,26,29,26,23,18,13,11,15,20,17,14,12,9,9,12,12,8,6,3,1,0,4,4,8,12,13,13,14,19,23,20,15,10,8,11,16,15,13,8,5,4,12,18,26,22,16,11,8,8,7,4,3,2,1,0,1,1,0,0,0,0,0,1,0,0,0,0,0,0,0,0,0,0,0,0,0,0,0,0,0,0,0,0,0,0,0,0,2,7,6,3,2,0,1,0,0,0,1,0,0,0,0,0,0,0,0,0,0,0,0,0,0,0,0,0,0,0,0,0,0,0,0,0,0,0,0,0,0,0,0,0,0,0,0,0,0,0,0,0,0,0,0,0,0,0,0,0,0,0,0,0,0,0,0,0,0,0,0,0,0,0,0,0,0,0,0,0,0,0,0,0,0,0,0,0,0,0,0,0,0,0,0,0,0,3,8,13,16,14,10,12,18,21,19,21,20,18,16,16,18,20,22,24,23,22,25,26,27,34,35,34,31,27,30,34,32,27,25,23,24,24,27,27,23,20,22,28,33,43,51,51,49,43,39,37,40,40,35,29,24,23,24,26,30,31,29,30,32,40,44,43,37,41,47,51,60,59,64,66,64,68,66,63,58,53,54,54,58,59,70,70,65,57,58,67,81,77,72,74,84,82,72,67,70,71,69,75,76,77,73,73,71,76,75,72,70,71,80,81,75,66,84,89,79,69,61,64,73,81,82,76,69,74,72,67,67,67,72,72,70,63,73,88,85,77,75,73,66,67,65,73,71,65,62,69,85,94,94,80,67,64,68,76,80,76,67,65,71,68,63,64,67,72,67,62,56,53,53,58,61,71,77,76,83,83,89,94,85,74,78,91,95,89,75,68,72,87,88,81,72,64,73,72,84,86,80,68,64,64,68,68,69,60,58,60,62,57,48,51,55,59,62,56,46,56,61,65,58,56,55,52,57,70,94,98,82,63,46,33,25,19,17,13,9,11,20,21,16,12,12,17,20,18,14,10,8,10,13,14,11,8,7,7,6,6,6,4,4,4,3,3,3,5,5,4,4,4,5,8,13,16,16,14,13,12,14,19,19,16,11,12,17,18,16,14,12,10,11,13,14,14,14,14,18,25,29,30,26,21,20,22,22,27,31,41,51,71,86,104,117,135,144,149,141,133,128,146,148,130,126,129,122,116,127,146,143,132,138,148,137,111,90,75,75,84,80,105,105,89,86,88,99,97,91,86,78,78,78,78,77,78,86,84,79,74,60,45,33,22,15,9,5,2,1,0,0,0,0,0,0,0,0,0,0,0,0,0,0,0,0,0,0,1,1,0,0,0,0,0,0,0,0,0,0,0,0,0,1,1,0,0,0,0,0,0,0,1,1,0,1,1,1,0,0,1,1,1,4,6,6,7,11,13,13,10,10,13,12,9,6,9,10,8,5,5,5,6,9,9,7,6,5,3,2,3,2,2,2,7,15,23,29,29,24,22,18,16,18,21,18,14,14,18,20,21,24,26,23,24,28,37,46,45,38,35,39,38,36,36,33,32,35,31,28,29,37,35,29,25,37,48,56,54,53,60,67,73,68,70,71,72,68,64,63,58,66,62,56,51,55,62,60,63,68,78,79,73,65,62,62,63,58,54,58,59,51,49,52,57,60,77,94,105,103,94,87,87,80,77,79,76,72,70,70,68,57,47,47,58,60,59,54,62,71,82,79,74,69,71,77,75,81,84,90,95,102,114,109,94,81,74,74,68,61,66,68,70,65,70,75,77,73,68,80,86,81,80,82,81,80,86,86,81,76,71,69,71,67,66,72,84,85,86,89,89,89,79,73,67,68,79,76,71,73,72,66,76,83,81,75,70,76,86,93,90,80,77,75,72,67,64,67,68,66,63,60,64,64,68,73,80,81,82,85,97,103,96,93,99,91,79,80,85,83,74,63,63,72,72,65,63,73,78,78,77,82,83,86,84,77,72,71,67,74,71,64,67,65,66,69,70,75,81,83,79,74,70,69,75,80,86,87,89,87,107,111,104,92,75,68,76,74,69,67,71,69,79,85,77,82,85,86,86,86,84,91,86,83,84,82,78,67,58,57,61,62,62,72,89,103,99,90,87,87,78,75,80,81,80,76,66,69,68,71,70,68,68,66,74,68,66,69,62,61,60,58,70,70,65,58,48,56,58,70,69,61,53,51,56,62,71,76,77,73,68,66,64,67,70,70,63,56,50,55,56,66,64,60,56,58,63,69,72,66,59,63,69,75,69,60,73,79,77,75,74,75,85,94,100,102,104,109,96,85,80,84,85,80,85,90,91,83,76,80,100,106,97,93,103,103,115,139,144,127,108,109,122,132,132,115,103,120,133,144,142,138,129,119,114,108,99,90,89,81,76,78,84,76,72,67,56,47,56,57,64,72,71,77,85,78,73,82,71,55,43,54,68,63,55,54,51,68,92,89,71,53,41,45,54,65,66,66,63,54,50,43,36,36,41,39,33,31,26,22,19,13,14,24,24,27,27,23,17,19,31,51,54,49,39,29,23,24,24,26,24,30,33,42,59,60,52,43,39,43,41,35,36,35,37,42,45,59,65,60,63,68,77,95,106,100,107,98,83,79,80,76,84,87,75,67,75,82,86,79,77,116,143,146,132,109,88,78,93,108,134,138,128,127,132,132,144,143,142,134,140,150,140,134,131,119,110,109,113,120,118,110,114,117,114,104,92,102,112,105,98,95,96,97,115,117,113,107,95,97,89,86,83,76,68,66,75,90,85,82,82,81,76,77,81,89,78,77,86,76,70,64,55,56,61,61,59,62,66,85,96,96,104,108,101,91,94,100,88,88,93,86,88,99,100,94,83,74,68,66,68,65,62,62,68,70,65,67,66,60,53,47,52,55,49,49,47,49,49,50,51,54,45,37,43,62,68,58,49,39,30,32,31,25,18,15,17,20,19,15,24,24,21,18,13,9,6,10,28,60,80,75,58,43,30,21,14,9,4,2,1,0,0,0,0,0,0,0,0,0,0,0,0,0,0,0,0,0,0,0,0,0,0,0,0,0,0,0,0,0,0,0,0,0,0,0,0,0,3,3,2,1,0,0,1,2,2,0,1,1,0,0,0,0,0,0,0,0,0,0,0,0,0,0,0,1,0,0,0,0,0,0,0,0,0,0,0,0,0,0,0,2,4,4,6,6,6,4,2,0,0,0,0,1,2,2,2,3,3,3,2,3,2,1,1,2,2,1,0,1,4,5,6,7,7,6,4,4,4,3,3,1,1,1,1,2,1,1,0,1,5,8,8,7,8,8,8,10,14,15,14,11,8,7,7,7,7,7,8,8,9,10,14,19,24,24,22,19,19,18,21,20,18,17,18,17,14,16,16,17,20,21,21,19,25,32,36,36,35,34,39,38,32,25,24,26,32,32,31,30,28,25,21,17,17,19,19,17,15,13,13,18,20,19,16,11,11,14,16,16,16,15,15,18,19,19,16,13,13,14,14,14,16,15,12,9,8,8,10,11,14,15,12,10,11,15,16,15,14,12,13,13,14,15,12,9,7,6,7,12,17,19,16,13,13,14,12,9,9,11,10,15,15,14,13,12,13,13,11,11,13,14,13,13,12,12,11,12,12,11,12,10,12,14,15,15,13,11,10,12,13,12,12,12,15,18,18,17,16,17,17,15,15,15,16,18,19,16,13,12,13,16,18,18,15,14,14,12,10,14,17,17,15,13,12,15,18,19,16,14,13,12,13,16,21,18,14,11,12,15,16,17,19,17,16,15,13,13,12,14,16,16,14,14,15,17,16,14,13,12,13,16,17,24,23,21,19,18,16,17,21,29,32,30,28,24,27,27,27,26,24,24,26,23,21,24,24,22,19,17,18,23,24,20,14,10,6,3,2,0,0,0,0,0,0,0,0,0,0,0,1,0,0,0,0,0,0,0,0,0,1,0,0,0,0,0,0,2,4,9,12,10,9,10,14,17,18,17,18,16,14,14,16,17,22,25,25,24,23,26,25,20,17,16,21,22,21,22,21,22,25,27,34,39,45,44,41,39,38,37,42,48,52,50,49,49,44,41,39,44,44,43,43,42,44,46,49,50,44,44,48,53,53,54,58,60,55,48,47,50,52,52,59,63,59,50,48,46,44,47,57,58,60,63,63,59,51,46,48,55,62,57,48,39,37,46,52,46,41,42,45,48,51,48,43,41,37,43,57,60,59,53,49,49,51,58,61,53,49,51,49,48,57,67,78,73,64,54,57,57,63,60,62,59,60,58,61,62,65,71,67,59,62,78,102,109,96,78,67,67,68,78,86,83,84,85,89,106,129,128,112,88,72,70,66,70,78,77,75,78,73,74,79,86,83,80,82,80,82,81,70,62,57,51,55,51,64,70,77,86,110,115,103,85,79,81,91,88,76,68,66,78,83,76,66,62,58,60,72,74,71,63,72,75,73,80,77,73,75,83,77,73,65,68,79,88,88,82,70,69,74,77,68,56,55,62,61,65,60,59,57,60,70,70,70,68,62,68,72,77,71,60,51,50,58,69,67,62,57,56,65,66,69,66,58,55,48,53,60,70,67,58,51,51,58,63,57,56,56,63,72,82,85,78,75,69,66,73,70,78,75,72,61,57,64,73,75,72,60,62,69,96,117,120,108,93,84,79,76,70,62,55,55,64,76,93,133,168,183,169,145,134,136,135,125,107,100,99,101,109,108,105,116,121,140,153,202,255,255,233,191,168,190,182,156,136,120,128,167,183,165,135,119,107,106,100,90,77,68,73,88,91,97,93,94,104,119,122,120,117,104,116,118,105,87,81,95,120,150,146,130,117,108,104,98,90,88,93,84,82,89,103,94,91,90,96,93,83,80,92,101,100,92,90,77,74,80,84,82,89,106,114,121,155,162,141,126,122,139,156,156,137,127,118,108,99,96,99,104,102,116,108,104,102,113,124,114,94,82,78,84,94,96,91,89,95,92,106,119,121,119,111,102,93,98,98,106,100,113,121,133,143,127,116,110,111,104,108,109,109,100,100,97,96,93,99,115,119,105
1,1,1,0,1,0,0,1,1,0,0,0,0,0,0,0,0,1,0,0,0,0,0,1,1,1,1,1,0,1,1,0,1,0,0,0,0,1,1,0,1,0,1,0,1,0,1,0,0,0,1,0,1,0,1,1,0,1,0,0,0,1,1,1,0,1,1,1,1,1,0,1,1,1,1,0,0,0,1,0,0,1,0,0,0,1,1,1,0,0,1,0,1,0,1,0,0,1,0,0,1,0,1,0,1,1,0,1,0,0,1,1,0,0,1,0,1,0,1,0,1,1,0,1,1,1,1,1,1,0,0,0,1,1,1,2,3,1,1,1,2,1,1,0,0,1,1,1,1,0,0,0,1,0,0,0,0,1,1,0,0,0,0,1,1,1,1,0,0,1,1,1,1,0,0,1,1,1,1,1,0,1,1,1,1,1,2,2,3,2,1,1,1,1,3,1,2,2,2,3,3,3,3,3,3,2,3,2,3,4,4,3,3,3,2,2,4,5,4,4,5,6,6,7,7,7,7,6,5,3,3,5,5,5,6,4,5,5,5,5,6,7,8,9,9,9,8,8,9,8,7,7,4,5,3,3,3,4,4,3,4,3,3,4,6,7,6,5,5,4,4,6,7,7,6,5,5,4,4,3,3,2,2,3,3,2,2,2,3,3,3,2,2,2,2,2,4,5,5,5,5,5,6,7,7,7,8,7,8,8,8,8,8,8,9,8,6,6,6,7,8,7,6,5,5,5,4,4,4,5,6,6,5,5,6,5,6,5,4,4,4,4,7,8,5,4,4,3,4,6,7,6,6,6,8,12,12,10,9,7,8,7,5,7,6,5,4,5,6,7,7,5,5,5,5,4,4,4,4,4,4,4,3,2,3,4,5,5,5,4,4,4,5,8,8,6,6,5,7,9,8,8,8,8,7,7,4,6,6,6,5,5,5,6,6,6,6,6,5,4,5,4,4,6,5,7,6,6,7,9,8,7,5,4,5,4,3,3,3,3,2,3,4,3,6,8,11,12,11,11,13,15,15,13,11,10,9,10,12,12,11,11,14,20,25,26,26,26,25,26,31,34,33,33,35,35,35,35,41,47,57,58,55,46,42,39,37,32,28,25,25,31,32,31,29,25,25,25,25,24,21,16,17,16,15,13,12,10,8,5,5,5,4,4,5,3,2,3,1,3,3,2,1,1,2,2,2,2,1,1,1,2,4,2,2,1,0,0,0,1,1,3,1,1,2,3,3,2,4,3,2,1,1,2,2,3,1,1,1,0,1,2,1,1,0,1,0,1,1,2,2,1,0,1,1,1,0,2,2,2,1,1,1,0,0,0,1,0,1,1,1,0,1,1,0,0,1,1,1,0,0,1,1,1,1,0,1,0,0,1,1,1,1,1,0,1,0,0,0,0,1,1,1,0,1,0,0,0,1,0,1,0,0,1,0,0,0,1,1,0,0,0,1,1,1,1,1,0,1,1,1,0,0,0,0,1,1,0,0,0,0,0,0,0,0,1,0,1,0,0,0,1,1,1,0,1,1,0,0,1,0,1,0,0,0,0,1,0,0,0,0,0,1,0,1,1,1,1,0,0,0,1,0,1,0,1,1,1,1,0,1,1,0,0,1,0,0,0,0,0,1,1,0,1,0,0,0,0,1,0,0,1,0,1,1,1,0,1,0,1,0,0,1,0,1,0,0,1,1,1,1,1,1,1,1,1,1,1,0,0,1,1,1,1,0,0,0,1,0,1,0,1,3,7,8,7,10,12,17,17,14,12,20,24,21,15,11,8,11,14,14,9,6,4,5,11,14,10,7,5,5,4,2,1,0,1,0,0,1,1,0,1,2,3,2,2,2,2,2,0,1,0,5,11,11,13,9,8,4,1,1,1,0,1,1,0,1,3,5,4,4,2,1,0,1,0,0,1,1,0,1,0,0,0,1,0,0,0,0,1,2,2,2,1,0,1,3,7,15,17,14,13,15,14,11,9,7,6,6,4,3,2,1,1,1,0,1,0,1,1,0,1,1,2,3,3,2,1,1,1,2,2,2,1,1,1,1,0,1,1,1,1,0,1,0,1,0,0,0,0,0,1,0,0,1,0,1,2,2,1,1,0,1,1,0,1,0,0,1,0,0,0,1,0,1,0,0,0,1,0,1,0,1,0,1,1,0,1,1,2,0,1,1,3,3,3,2,2,1,1,1,1,2,2,1,1,1,1,1,1,2,1,1,1,0,1,0,0,1,1,1,2,3,3,3,3,3,2,3,2,2,1,2,2,3,2,2,2,2,3,3,3,3,3,1,1,1,3,5,4,4,3,3,4,3,3,3,3,1,2,1,1,1,1,1,1,0,1,3,4,5,4,4,3,3,4,4,4,5,5,5,4,5,5,3,3,2,3,2,2,2,1,1,1,1,1,2,1,1,3,4,4,5,5,6,5,4,3,2,2,3,3,3,3,3,3,3,3,3,2,3,3,2,2,2,1,2,2,3,2,1,0,1,1,1,1,0,1,1,1,1,0,1,1,0,0,3,2,2,1,1,1,0,1,0,2,6,6,5,4,3,1,0,0,1,1,2,3,2,1,0,0,0,1,0,0,1,0,0,0,1,1,0,1,0,1,1,1,1,0,1,1,1,0,1,1,1,0,1,0,1,0,1,0,1,0,1,1,0,0,0,1,0,1,0,1,0,0,1,1,1,0,1,0,1,0,0,1,1,1,1,1,1,1,1,3,3,1,2,3,4,4,3,3,3,2,2,3,1,1,3,4,3,2,2,1,0,1,0,0,1,1,1,1,1,0,1,0,1,2,2,3,1,1,1,1,1,1,0,0,2,4,8,15,30,36,41,39,40,40,39,36,30,23,18,14,13,10,8,6,4,2,1,1,1,0,1,0,1,1,1,1,1,0,0,0,1,1,0,0,1,0,0,1,1,0,1,0,1,0,1,0,0,1,1,1,1,1,1,1,1,1,1,1,0,1,0,1,0,0,1,1,0,0,1,1,0,1,1,1,0,1,0,0,0,0,0,0,1,1,1,1,1,0,1,1,0,1,1,0,0,1,1,0,0,0,0,0,0,1,1,0,0,1,1,0,1,1,1,1,0,0,0,1,0,1,0,1,1,1,0,1,1,1,0,0,1,0,1,1,1,1,2,2,2,2,2,0,1,0,0,0,1,1,1,1,0,1,1,0,1,0,0,1,1,1,0,1,1,1,0,1,0,1,1,1,0,0,1,0,0,0,1,0,0,1,1,2,0,1,0,0,1,1,0,1,1,1,1,1,0,0,0,0,1,0,0,0,1,1,0,1,1,1,0,1,0,1,0,1,1,1,0,1,1,1,1,1,1,1,1,2,2,1,1,1,1,0,1,1,1,1,0,0,0,0,1,1,1,0,1,1,1,3,2,3,3,2,1,3,4,3,4,3,2,1,2,2,2,2,2,1,1,0,0,1,0,0,1,2,2,3,2,2,1,1,0,1,1,1,1,2,1,3,3,4,3,2,1,2,2,2,1,1,1,1,0,1,2,1,0,1,1,1,1,1,1,1,0,1,1,1,1,2,1,1,1,1,1,1,1,2,2,2,0,1,1,2,2,3,3,2,2,4,3,3,3,3,2,2,2,2,2,2,3,3,2,3,3,2,1,1,1,1,1,1,0,1,1,1,1,2,2,2,2,1,1,0,1,1,2,1,1,0,1,1,1,1,1,0,1,1,1,1,1,1,1,1,0,0,1,0,1,1,1,0,0,1,0,1,1,0,1,0,1,0,1,0,0,0,0,0,1,1,0,1,0,1,0,0,0,1,1,1,0,1,0,1,0,0,0,1,1,0,1,1,0,0,0,2,2,2,2,2,3,4,5,5,4,3,2,2,3,2,2,1,2,1,2,3,2,2,4,5,7,9,8,7,7,6,6,5,5,6,5,4,2,3,2,2,1,1,2,1,1,2,3,2,1,1,1,0,1,1,0,0,1,1,1,1,2,2,1,1,1,1,0,1,1,2,1,1,1,1,1,1,1,0,1,1,0,1,1,1,0,0,0,0,1,1,1,0,0,0,1,1,0,1,0,1,0,1,0,1,1,1,1,0,1,1,1,1,0,0,1,0,0,1,0,0,0,0,0,0,1,1,0,0,1,0,1,0,0,1,1,0,0,0,1,0,1,1,1,0,0,0,0,1,0,1,0,1,0,0,1,1,0,1,0,1,1,1,1,0,0,0,0,2,2,2,2,2,2,1,0,1,2,2,5,5,4,5,5,4,4,2,2,2,1,1,1,1,0,0,1,1,0,2,2,2,2,1,1,0,1,1,1,1,1,1,0,0,1,2,2,2,1,2,2,1,1,0,1,1,1,2,2,1,1,0,1,1,1,2,1,1,2,2,3,2,3,3,5,6,6,4,5,6,4,4,4,4,3,4,3,4,2,2,2,1,1,1,0,1,0,1,1,0,0,1,1,1,0,1,1,0,1,1,1,1,1,0,1,1,0,0,0,1,1,1,1,4,16,18,16,11,11,9,6,3,3,2,1,2,12,17,15,11,9,5,3,2,1,1,2,3,9,18,20,19,21,24,23,18,16,14,16,17,18,16,14,12,11,10,9,7,6,7,6,4,3,1,0,1,1,1,0,1,1,0,1,1,0,1,2,1,0,1,1,0,0,0,0,2,2,1,0,1,1,1,2,0,1,0,1,1,0,0,1,1,1,0,1,1,0,1,1,1,0,1,1,0,1,0,0,0,1,1,1,0,0,0,0,0,0,0,1,0,0,1,0,0,0,0,1,1,0,1,0,0,1,0,1,1,1,1,1,0,0,1,0,0,1,1,1,1,1,1,1,1,1,0,0,0,1,0,0,0,1,0,1,1,1,0,0,0,1,0,1,1,1,1,1,0,1,1,1,0,0,0,0,0,0,1,0,0,1,0,0,0,1,0,0,1,1,0,0,1,0,0,0,0,1,1,1,1,1,1,0,0,1,1,0,1,0,1,1,0,0,1,1,1,0,1,1,0,0,1,1,1,0,1,0,0,0,1,1,0,1,1,0,1,1,1,1,0,0,1,1,0,0,0,1,0,1,1,1,0,0,0,0,0,0,1,1,1,1,1,1,0,0,0,1,1,0,0,0,1,0,1,1,0,1,0,0,0,0,0,0,1,0,1,0,0,0,1,0,1,1,0,0,1,0,1,1,1,1,1,1,1,1,1,1,1,0,0,1,1,1,1,1,1,0,1,0,0,1,1,1,1,0,0,1,0,0,0,0,1,0,0,0,0,0,1,0,0,0,1,1,0,1,1,1,0,0,1,1,0,1,1,1,0,0,1,0,1,0,0,1,1,0,0,1,1,1,1,1,0,0,0,1,0,0,0,0,0,0,0,0,0,1,1,0,1,0,0,0,1,1,1,0,0,1,1,0,1,1,0,1,0,1,1,1,1,0,1,0,0,1,0,1,12,18,19,17,22,27,43,49,46,38,31,26,20,16,17,18,16,13,10,7,5,3,1,0,1,1,1,1,0,1,1,1,0,1,0,0,0,1,3,3,3,2,0,0,1,0,0,0,0,1,1,0,1,0,0,0,1,1,1,0,0,1,0,1,0,0,1,0,0,1,1,0,0,0,1,1,0,1,0,1,0,0,1,0,1,1,1,1,2,2,1,0,1,0,0,1,1,0,0,0,1,1,0,0,1,1,0,1,0,1,1,1,0,0,1,1,0,1,1,0,1,1,0,1,0,0,0,1,0,0,1,0,1,1,0,1,1,1,1,0,1,0,1,1,1,1,1,1,0,0,1,1,0,0,0,0,1,0,1,1,1,1,1,1,1,0,0,1,0,1,1,0,1,1,1,2,1,1,1,0,1,1,0,0,0,0,0,1,2,2,2,2,2,2,3,5,3,2,1,2,1,1,1,0,1,1,0,1,2,2,1,2,2,2,1,1,0,1,0,2,1,1,0,1,1,0,3,3,2,1,1,1,2,2,1,1,1,0,0,1,0,1,1,1,1,1,0,0,1,1,2,2,2,2,1,1,1,0,1,0,0,1,2,1,1,1,1,1,1,1,0,1,2,2,2,1,1,1,1,1,0,1,1,1,1,1,0,0,1,1,1,2,1,2,1,0,0,1,1,1,1,1,1,2,1,1,0,0,0,1,0,0,2,1,1,0,1,1,2,2,3,2,3,4,4,3,3,3,1,2,3,4,4,4,3,3,3,3,3,3,3,2,2,2,2,2,2,2,1,2,2,4,4,6,7,6,4,4,4,5,4,3,3,3,2,2,3,4,5,5,5,6,7,8,9,7,5,5,4,4,3,4,4,4,4,4,3,3,2,2,2,2,2,1,0,1,1,2,1,1,2,2,3,3,2,1,1,1,1,2,2,2,2,3,4,4,3,3,2,3,2,2,3,2,2,2,1,1,1,1,0,1,1,1,1,0,1,0,1,2,1,1,1,1,2,3,4,3,3,5,4,3,2,1,2,2,2,2,3,3,4,3,4,4,3,3,3,3,3,2,2,3,4,4,3,2,2,3,3,2,1,1,2,2,2,3,3,3,3,3,3,3,3,4,3,3,3,5,5,3,4,2,3,3,2,2,2,1,1,2,2,3,2,3,2

audio,continuous frequency-modulated signal,levels: 4,target%: -0.25,target area%: 0.25,time to find and hold 1s: 4.842648267745972
0.0,0.0,0.0,0.0,0.0,0.0,0.0,0.0,0.0,0.0,0.0,0.0,0.0,0.0,0.0,0.0,0.0,0.0,0.0,0.0,0.0,0.0,0.0,0.0,0.0,0.0,0.0,0.0,0.0,0.0,0.0,0.0,0.0,0.0,0.0,0.0,0.0,0.0,0.0,0.0,0.0,-1.2898029129482915,-1.3230747440332895,-2.614022033105649,-3.93714187773961,-3.9715600098761805,-6.552355399076397,-7.90874900376424,-9.234114511746002,-10.558423923734486,-11.882691998583317,-13.206958317630109,-14.53122455798728,-15.855490794681462,-17.17975703120025,-18.504023267710455,-21.118092417168523,-23.765433397711565,-26.413918754378678,-29.062449211646456,-31.710981593841748,-34.35951406261593,-37.00804653543149,-39.656579008440985,-42.305111481459996,-44.95364395447948,-47.60217642749898,-50.25070890051849,-52.899241373538,-54.25797093360922,-56.87323157554372,-58.23081675949087,-59.55622938787642,-59.59073790286278,-60.881734237460364,-62.20485618462888,-63.52907732458936,-63.56353872341775,-64.85453304227315,-64.88785198566964,-66.1788012902998,-66.21211831280019,-67.5030675310449,-67.53638454951339,-67.53753085461635,-68.82737895493864,-68.86065271500206,-68.86179717789943,-67.57203936960272,-67.53876946363965,-66.24782226115572,-66.2145053335119,-64.923556119706,-64.89023910145096,-64.88909279635847,-66.17885052193328,-66.2121204240399,-66.21326471339064,-66.21330980994041,-66.2133117346735,-66.21331182124285,-66.21331182528377,-66.21331182547767,-66.21331182548718,-66.21331182548766,-66.2133118254877,-64.9235089125394,-64.8902370814544,-64.88909270533033,-64.88904760472965,-64.88904567980215,-64.88904559322326,-64.88904558918188,-64.88904558898794,-66.17884850192672,-66.21212033301124,-67.50306762208358,-67.53638455376924,-67.53753085482082,-68.82737895494867,-70.15045562795085,-70.18487192193275,-71.47586431565666,-71.50918317246426,-72.80013247305254,-72.83344949535896,-72.83459580064587,-72.83464098802888,-74.12444582995604,-74.15771774781437,-74.15886212798937,-74.15890722878444,-74.15890915372148,-74.15890924030086,-74.15890924434225,-75.4487121574845,-75.481983988579,-75.48312836470355,-75.48317346530423,-75.48317539023174,-74.19337256386234,-74.16010073681872,-74.1589563608886,-74.15891126029743,-74.1589093353704,-72.86910633584323,-72.83583450071686,-74.12449303734715,-74.15771976782197,-72.86905930606976,-71.54602957605822,-70.221812376787,-68.89754824241392,-68.86308501370856,-67.57209061272258,-67.53877166549861,-66.24782236068502,-64.92470242522737,-64.89028428884549,-63.599291812389616,-63.56597295172506,-63.564826563900155,-63.56478137266967,-64.85458235645467,-64.88785410075731,-64.88899847283001,-64.88904357323625,-64.8890454981542,-64.88904558473263,-64.88904558877398,-64.88904558896793,-64.88904558897744,-64.88904558897791,-66.17884850192623,-66.21212033301121,-67.50306762208358,-66.24658164082095,-64.92465319783925,-64.89028217780974,-66.17889754300217,-67.50192534828011,-68.82614246098197,-70.15040659131414,-70.1848698198256,-71.47586422080205,-72.79898608097383,-75.4130101298207,-78.06034918543571,-80.7088344555239,-84.6471678216986,-87.32897203478495,-91.26845179262197,-93.95030119712273,-97.88978288413207,-101.86143528836394,-105.83418881050966,-109.80698559106001,-113.77978421381594,-116.46278000634601,-120.40230688459584,-123.08415830504323,-127.02364008288635,-130.995292491364,-133.67824310076543,-136.3279651372925,-140.26634755283987,-144.2379567815935,-146.92090555245187,-149.57062750643192,-150.9294040922348,-152.25486383273739,-153.5791772762203,-153.61364261976883,-153.61483420327295,-152.32507841093235,-149.71220276990695,-147.06490899655057,-144.416425659881,-141.7678952936414,-139.11936291570146,-135.18102753418344,-131.20942031734464,-125.94686581122997,-121.94079728636797,-117.9668542915389,-113.99401048565427,-110.02120985140145,-106.0484110553033,-102.07561234173319,-98.10281363201001,-95.41981783541954,-91.4802909569748,-87.50863662356959,-82.24608010169268,-76.95020857305764,-72.9429937428982,-68.96900556068559,-66.28596273877038,-63.63623676177752,-59.69785416883753,-57.016047844746,-53.07656799162647,-49.1049156697177,-47.71176797730546,-46.38512068500557,-45.060760302573364,-43.736490038611535,-42.41222362064777,-39.79815446270861,-38.44061639470644,-38.405008695000916,-38.40377210192278,-37.113920147694536,-37.08064621427892,-34.49989591739267,-33.143504237234445,-31.81813881581206,-30.493829407863984,-30.459364246157335,-29.168369758205046,-27.845247893972417,-26.52102675787893,-26.48656535923594,-26.485373953337916,-26.485326841026883,-26.485324825469096,-25.195521821706087,-22.582644160479656,-21.22515320903338,-21.189547525089566,-21.18831102283615,-21.188261985801553,-21.188259883674878,-21.188259788819288,-21.18825978438052,-21.18825978416709,-21.18825978415661,-21.188259784156088,-22.47806269710435,-21.22153161524106,-21.189404160280127,-19.89850197180844,-19.865186965050274,-19.864040750577594,-19.86399556743941,-19.86399363866446,-19.863993551901142,-19.863993547850725,-18.574190634708046,-18.540918803613515,-18.53977442748897,-18.539729326888278,-18.53972740196077,-18.539727315381878,-18.539727311340496,-17.249924398198267,-17.21665256710376,-17.215508190979218,-17.215463090378524,-17.215461165451018,-17.215461078872124
0,0,0,0,0,0,0,0,0,0,0,0,0,0,0,0,0,0,0,0,0,0,0,0,0,0,1,0,0,0,0,0,0,0,0,0,0,1,0,0,0,0,0,0,0,0,0,0,0,0,0,0,0,0,0,0,0,0,0,0,0,0,0,0,0,0,0,0,0,0,0,0,0,1,0,0,0,0,0,0,0,0,0,0,0,0,0,0,0,0,1,0,0,0,0,0,0,0,0,0,0,0,0,0,0,0,0,0,0,1,0,0,0,0,0,0,0,0,0,0,0,0,0,0,0,0,0,0,0,0,0,0,1,0,0,0,0,0,0,0,0,0,0,0,0,0,0,0,0,0,0,0,0,0,0,0,0,0,0,0,0,0,0,0,0,0,0,0,0,0,0,0,0,0,0,0,0,0,0,0,0,0,0,1,0,0,0,0,0,0,0,0,0,0,0,0,0,0,0,0,0,0,0,0,0,0,0,0,0,0,0,0,0,0,0,0,0,0,0,0,0,1,0,1,0,0,0,0,0,0,0,0,0,0,0,0,0,0,0,0,1,0,0,0,0,0,0,0,0,0,0,0,0,0,0,0,0,0,0,0,0,0,0,0,1,0,0,1,0,0,0,0,0,0,0,0,0,0,0,0,0,0,0,0,0,0,0,0,0,0,0,0,0,0,0,0,0,0,0,0,0
1,1,0,0,1,1,0,0,1,1,1,1,1,1,1,0,0,0,1,0,1,1,0,0,1,1,0,0,1,1,1,1,1,1,1,0,1,1,1,2,5,11,16,19,24,29,33,34,33,28,26,35,41,38,32,30,48,59,64,62,61,62,61,59,62,58,57,59,54,49,49,48,42,43,45,51,54,52,47,44,45,51,49,46,44,49,48,49,49,47,48,48,50,62,62,63,65,57,51,49,49,48,44,44,45,42,40,38,48,55,54,47,46,53,63,62,59,55,54,65,74,72,74,72,75,72,66,61,55,58,58,53,47,44,45,50,45,44,46,46,46,47,48,49,44,42,59,71,65,51,42,38,49,59,58,47,38,42,44,47,45,53,60,59,56,48,41,47,49,48,46,45,56,61,58,49,39,51,57,73,78,74,69,72,79,84,84,105,115,124,129,123,141,138,133,134,143,136,125,115,120,137,127,130,135,132,125,115,115,98,98,100,82,62,46,42,34,37,51,50,40,32,36,44,51,52,52,42,32,29,42,45,38,29,20,26,44,47,41,30,21,15,10,11,13,13,10,7,4,15,27,30,26,20,13,9,15,20,22,22,16,13,17,24,25,22,16,12,14,18,16,13,9,8,12,16,16,15,11,8,11,14,16,16,14,11,11,15,14,16,14,11,14,19,19,15,11,10,15,16,14

audio,continuous frequency-modulated signal,levels: 4,target%: -0.5,target area%: 0.25,time to find and hold 1s: 3.4723060131073
0.0,0.0,0.0,0.0,0.0,0.0,0.0,0.0,0.0,0.0,0.0,0.0,0.0,0.0,0.0,0.0,0.0,0.0,0.0,0.0,0.0,0.0,0.0,0.0,0.0,0.0,0.0,0.0,0.0,0.0,0.0,0.0,0.0,0.0,0.0,0.0,0.0,0.0,0.0,-1.2898029129482915,-1.3230747440332895,-2.614022033105649,-2.6473389647913184,-3.9382881787911828,-3.9716051970557453,-3.972751502148698,-5.262599602470494,-5.295873362533884,-7.876623651327842,-9.233015331097713,-10.558380752501057,-10.592887247499894,-13.17368640401808,-15.819883090964584,-18.468323350877967,-22.40665479635094,-25.088458923061367,-26.448332850970395,-29.06363859310771,-30.421225701962847,-31.746638416926316,-34.360752761850584,-35.7182927588121,-37.04370345823827,-39.65781771234885,-42.30516061801386,-44.953646061269396,-46.31237360963074,-48.927634160935,-50.28521934064633,-51.61063196882839,-52.93494339675307,-54.259211562435155,-55.58347788572772,-56.907744126288854,-59.52181327594135,-60.87935134354563,-62.20476195617992,-62.239270380342084,-62.240463797746045,-63.53031391362563,-63.56358776450374,-63.56473223164596,-63.56477733650147,-60.98517343573682,-60.91862986015575,-60.916341111949485,-60.91625091094211,-60.916247061096605,-62.206049800887584,-63.52912453683814,-63.56354074365933,-64.85453313331335,-66.17765490287385,-67.50187603453757,-67.53633743296757,-67.53752883885514,-68.82737886411395,-68.86065271075671,-68.8617971776955,-70.15164519548931,-71.47472186465401,-74.08874398434857,-75.44628004023348,-78.06149347518533,-80.70887955209324,-82.06756392053607,-83.39301972033947,-84.7173329864183,-86.04160123462836,-87.3658675617679,-88.69013380251344,-90.01440003922667,-92.6284691886947,-93.98600725628994,-95.3114178689238,-97.92553211898252,-99.28307211150477,-100.60848281071749,-100.642991238921,-101.9339875694672,-103.25710951644128,-105.87113356934051,-107.22866971220174,-108.55408023826615,-111.16819448428396,-113.81553738956059,-116.4640228327971,-117.8227503811575,-120.4380109324617,-123.08539902512133,-124.44408348438839,-124.47973637548883,-124.48097489773828,-124.481024025801,-124.481026132183,-124.48102622724305,-125.77082914464015,-127.09390388888737,-128.41812300905525,-129.7423872298138,-129.77685046255107,-131.06784486373047,-132.39096672391224,-132.425384946863,-132.42657451441147,-131.13681863123665,-131.103548811862,-131.1024045263682,-132.39216234295165,-131.13562933636433,-129.81369888188618,-128.48952485828863,-127.16526256226418,-124.55119359019973,-123.19365553089122,-120.57844200570696,-119.22085883753107,-116.60564338702243,-115.24806013224814,-112.63284467769716,-112.56506433567719,-112.56272653809827,-112.5626342343719,-112.56263028964177,-112.56263011204423,-111.2728271907997,-111.23955535931633,-111.23841098317274,-109.94856296962278,-108.62548630066196,-108.591070006874,-108.58988052610789,-108.58983350038577,-108.58983148886985,-109.87963431119738,-109.91290613804705,-109.91405051396765,-109.91409561455835,-109.91409753948535,-109.91409762606423,-109.91409763010562,-111.20390054324784,-111.23717237434235,-112.52811966341518,-112.56143659510087,-112.56258289615245,-112.56262808333202,-112.5626300123009,-112.56263009907373,-113.8524330160729,-115.1755077603006,-115.2099239675192,-115.21111344424442,-115.21116046977261,-115.21116248127902,-113.92135965895099,-113.8880878321013,-112.59714054323243,-111.27402069860844,-111.23960256647237,-109.94861009022046,-108.62548831661762,-106.01146427181163,-104.65392812933882,-102.03871469034515,-100.68113152619156,-100.64552190177251,-100.64428522212599,-101.93403908975347,-103.25711173126221,-104.58133075654446,-105.90559497286276,-107.22986111833481,-107.26432443764047,-108.55531884286077
0,0,0,0,0,0,0,0,0,0,0,0,0,0,0,0,0,0,0,0,0,0,0,0,0,0,1,0,0,0,0,0,0,0,0,0,0,1,0,0,0,1,0,0,1,0,0,0,0,0,0,0,0,0,0,1,0,0,0,0,0,1,1,0,0,0,0,0,0,0,0,0,0,0,0,0,0,0,1,0,0,0,0,0,0,0,0,0,0,0,0,0,0,0,0,0,0,1,0,0,0,0,0,1,0,0,0,0,0,0,1,0,0,0,0,0,0,0,0,0,0,0,0,0,0,0,0,0,0,0,0,0,0,0,0,1,0,0,1,0,0,0,1,0,0,0,0,0,0,0,0,1,0,0,0,0,0,0,0,1,0,0,0,0,0,0,0,0,0,0,0,0,0,1,0,0,0,0,0,0,0,0,0,0,0,0,0,0,0,0,0,0,0,0,1,0,0,1,0,0,0,0,0,0,0,1,0,0,0,0,0,0,1,0,0,0
0,0,1,0,0,0,0,1,0,0,1,0,0,1,1,0,0,1,1,1,1,0,1,0,0,1,1,0,0,1,1,0,0,1,0,0,0,3,10,15,15,16,16,13,9,7,13,25,35,33,28,29,39,63,76,70,60,50,43,39,40,41,40,39,47,57,56,54,55,55,51,43,41,46,45,41,47,50,45,44,43,41,43,43,44,49,51,55,60,59,60,60,63,65,67,63,69,70,66,63,68,78,88,96,91,96,90,83,77,67,66,74,82,85,87,89,96,89,86,78,86,91,104,105,101,115,122,127,120,114,109,108,102,96,92,98,98,98,101,95,95,96,104,102,93,82,87,92,91,83,74,64,63,62,64,69,76,77,76,69,76,89,100,99,94,91,88,87,85,79,78,88,95,104,101,98,104,98,81,68,71,83,85,77,71,72,74,79,80,78,91,115,116,103,91,79,74,75,67,55,56,61,60,61,55,55,77,85,93,94,95,108,115,100,82,92

audio,continuous frequency-modulated signal,levels: 4,target%: 0.75,target area%: 0.25,time to find and hold 1s: 16.885151624679565
